idx,I,II,III,aVR,aVL,aVF,V1,V2,V3,V4,V5,V6
0,-0.020953102622180624,-0.036127350356271744,-0.0355506453794365,0.039983871638720275,0.004708688997788202,-0.027668616402128077,-0.006863296190544738,0.04882082973758928,-0.0047400967660630455,-0.020655284026733764,-0.007788056999334658,-0.018606221027979687
1,-0.016178771860451826,-0.037211643620128035,-0.03565776875449972,0.040187631525451434,0.007199470600871578,-0.02769123527604114,-0.008357501997489282,0.04961048095335727,-0.003307686651423697,-0.024602341385403015,-0.008617402852870784,-0.018340547253880207
2,-0.011199757358974789,-0.03721904912316903,-0.03579667672819045,0.03701262819729259,0.010936605271227782,-0.028624699599030155,-0.00827603285413258,0.04947197610631296,-0.0008487676579532477,-0.026647059263921483,-0.009805755352350454,-0.01899204703509689
3,-0.009490130724179261,-0.034937770620266005,-0.035383500829837114,0.03286752902773478,0.012772800473907407,-0.026477362572070517,-0.0083113977877627,0.046414451219694036,0.000518423834844628,-0.028335463851420287,-0.009164137004543216,-0.021247714240573465
4,-0.008831352093761197,-0.0335253539845944,-0.02257536500218298,0.03200230103111226,0.01381741312336853,-0.030807518970336005,-0.008364608285177488,0.04145956856717514,0.0005366893394268546,-0.027968605503494726,-0.008682000458572592,-0.024464112152423965
5,-0.010058934397428453,-0.03446928183624948,-0.015528610345180095,0.03267567743972484,0.01565010938778552,-0.03285734118565363,-0.008405772554338442,0.0384772274053152,0.000846687442933175,-0.028190345048920748,-0.0101292431578561,-0.02597641780977003
6,-0.01391704686998833,-0.03447771600773746,-0.01592523019106041,0.030596194152068445,0.017725666672387813,-0.03328719685034831,-0.008388379510538259,0.038396535179727465,0.0008645813756725518,-0.028874295573639436,-0.013413390906497416,-0.029137590704123556
7,-0.01252067573875872,-0.03331262100727611,-0.024503974821338516,0.02586393272526229,0.0193833073907138,-0.03376951846443845,-0.008370866313209595,0.03878404914095085,-0.0019784047023166385,-0.029155478201468923,-0.01480085536899814,-0.028580342091176873
8,-0.012186902309323362,-0.031542405583382706,-0.03364397812173292,0.021303138463515395,0.018110088331931676,-0.035051296496040156,-0.0070868159681805876,0.03869959327541045,-0.006841053823145149,-0.02795652472647571,-0.010461150731034735,-0.026140648150000605
9,-0.01532622140750416,-0.030849284461106553,-0.03937511147356638,0.018651500585527687,0.013810223881374227,-0.035921255893110564,-0.007365823277234618,0.0390885818205986,-0.0097485889410244,-0.02578355996331126,-0.006798627514451122,-0.028704042342861315
10,-0.018471792064355248,-0.02876102834651701,-0.034261081137346494,0.020130413713685697,0.009226258055954437,-0.035030854038457654,-0.007352875666030434,0.03906881450368985,-0.009731077305399044,-0.024578881703764002,-0.0069339329116673565,-0.0290167655653756
11,-0.020578601987491094,-0.02994795138362491,-0.028131226756007315,0.024795677456136058,0.006162751845980773,-0.03388348764160146,-0.004256340772655846,0.036083535563079194,-0.009129698072940534,-0.02482907980428968,-0.007840241847395221,-0.0289149218170925
12,-0.022596862984843587,-0.030587898415409938,-0.026737678556399674,0.026487063016991105,0.0052037862893031875,-0.03468109041341005,0.0007749375143449311,0.030833734079679237,-0.009112177620628603,-0.02542859561937466,-0.00999988228317085,-0.02754073090652935
13,-0.022600604131511524,-0.025184718452924762,-0.024621525053081638,0.024235275404137707,0.006886344683189771,-0.03459761962616902,0.0026996580654129257,0.027837269126927133,-0.009223541846160699,-0.025269102521607925,-0.008450730298672687,-0.025711499429758672
14,-0.019766283593129392,-0.024882274844147616,-0.020636254194936386,0.024688918513431805,0.00957590390165533,-0.035141383199292726,0.002395133063557646,0.02921918273628671,-0.009194587807542565,-0.025603996431953754,-0.00881051184215316,-0.024005026011303207
15,-0.018092457111654397,-0.030234721093995644,-0.019901606436163802,0.029981228965411232,0.011177286819744937,-0.03842407468888487,0.0022657718473156896,0.03214723534701866,-0.009060962885713175,-0.02576526575459731,-0.0079678608662936,-0.02442406579904101
16,-0.02094759051817115,-0.03543429347016684,-0.025343407568455052,0.03567090331968248,0.010791788636728583,-0.04179924671613729,0.0023175236503147068,0.03352862495375869,-0.009184615705869204,-0.026780002858769122,-0.008532300802549311,-0.02444295407974846
17,-0.02453790807142939,-0.03931644197071502,-0.03353632769551891,0.036603804965665954,0.009789222019289221,-0.0433450980263654,0.002771970589034306,0.033479198139033356,-0.009670121788822567,-0.027060792061635974,-0.008443009700236662,-0.03269957855025077
18,-0.023578783355608004,-0.040520969238813584,-0.039232731671892826,0.036503065811114566,0.007552091473083155,-0.04415530520156868,0.0026950329051234415,0.03309181047076848,-0.008847018089188585,-0.027524075598837475,-0.009515756413674137,-0.03344660182433064
19,-0.020621394527757676,-0.039372125497951965,-0.03143453136298296,0.03679058479445467,0.006976879207914014,-0.047223231355796993,0.000508915612304657,0.03246078767508609,-0.006137548947114407,-0.024913862663534153,-0.01193174838750169,-0.03160758532472077
20,-0.020349886663773752,-0.03605133589498792,-0.02468702063244385,0.03668349640368236,0.006286119245124471,-0.04110331949169099,-0.002300852139800545,0.03261176334488203,-0.005185171310923498,-0.02290294876825069,-0.009987975112113398,-0.028508371442429292
21,-0.01642609587628768,-0.031243863914518527,-0.03325556036639778,0.03002513201968884,0.01246435297927865,-0.03220432552825659,-0.008638637578512694,0.03527710278117702,-0.0060185612069857675,-0.01572149600143055,-0.003320636598697052,-0.02564762127448162
22,-0.009162107681419004,-0.023212962392310514,-0.02957621450183643,0.022505921379231426,0.01758390736869233,-0.023632241222520164,-0.013972335614151336,0.04153776137865692,0.0009400545021738815,-0.00123597955108741,0.0029981757663814917,-0.019519096394689642
23,0.009992131894307484,-0.01874269470417147,-0.02414567378977012,0.01570049166527199,0.024331955022179115,-0.018214905005703594,-0.016249129387191134,0.05429300140306448,0.022013580773520114,0.01335386134291923,0.014010025006956084,-0.00908881449603223
24,0.03051158181371441,-0.007756923690095386,-0.018546976234216805,-0.008709479422292506,0.020735512455828685,-0.016574924806621497,-0.02304666767125854,0.07116501064963301,0.045132345241505736,0.023477611317903116,0.028214969977517927,0.003435455956616148
25,0.03070869790110215,0.004057656020743506,-0.002551832897899243,-0.01829262343322182,0.015042399334805102,-0.013576136044562813,-0.02001390217816993,0.08067988484314986,0.05908074752784469,0.025544518430130288,0.03509443553849479,0.004352925699021869
26,0.02518431785075468,0.006866987791434284,0.013397161988502809,-0.012956757535295169,0.008021559601820565,-0.00259616261019589,-0.0043354178849348834,0.07163194754898093,0.05224586717510374,0.015025085290282,0.02306027672941209,-0.005401082622053924
27,0.01106666621551856,0.00990616471908264,0.01921352531264006,-0.0030803800469637564,0.0010966150225739275,0.004778009746419514,0.007745264946310108,0.07927584224124173,0.03568915429527919,-0.004829278448204813,-8.460811663778267e-05,-0.01566885975766282
28,0.0026854693025599174,0.00978116713103205,0.0164483812460597,0.0020213323613398754,-0.005651570016292264,0.00462988404082281,0.04331564455807632,0.10421878318558296,0.03633870378306173,-0.01669697717844469,-0.02011576058278143,-0.02939391780332013
29,-0.002518987278406163,0.012092734198757405,0.014816389927359952,0.0009475049064647592,-0.010924759934669171,0.007104837200605391,0.10504736818506573,0.16328648118116157,0.08071344237601098,-0.004627371889725715,-0.024198400441996767,-0.03929073788340827
30,-0.008288311063940342,0.017159385439429284,0.025233237938121628,0.00044519221442726464,-0.01655456565289007,0.017182889830191,0.19710830613079566,0.26142022941686555,0.15100137303628458,0.024530661970967885,-0.018487490514973906,-0.04046346404659003
31,-0.022863127600578664,0.024912852731679827,0.050956301311699204,0.007840456590908863,-0.034191972340764945,0.030442812316572976,0.2951957332391933,0.36804488501661364,0.22841359106142795,0.05701873539356438,-0.014464788394051672,-0.0471822474525989
32,-0.03594336139195532,0.029522680861712284,0.07921248688441733,0.007051568082101809,-0.05408658217003731,0.04544358752821129,0.39203036769596694,0.4566418876906734,0.28973153959126585,0.07704564094110986,-0.009555280167887995,-0.0645017287588617
33,-0.04609378771473062,0.0409668214301028,0.09159683187584801,0.007204951374565904,-0.06363141121988601,0.05548337755442735,0.4610865859497638,0.5452692979967697,0.3736302537578118,0.1292306590352912,0.013608248698953468,-0.06501896180158398
34,-0.034877892952308004,0.05213375136430934,0.0842276717352492,-0.0109849421816885,-0.04641477914307626,0.06323424055153182,0.5096752499040775,0.6870367001096414,0.5135016356547355,0.24131487954480374,0.06434923790537062,-0.03815594743925933
35,0.012335162085725243,0.07558918319754923,0.0680028345630609,-0.044067717710285836,-0.03132546307951085,0.06797325546876753,0.515916799788618,0.8169440804185315,0.6597605850366945,0.3954064511271699,0.15713083209484122,0.013123588484968855
36,0.07564003992620248,0.12400459783508833,0.05124295190963914,-0.08959174150458019,0.0014192952629558855,0.08368583158838269,0.4252686533043531,0.8716771595873316,0.8069161430927214,0.5778390391925868,0.2724011908645832,0.09856370184158393
37,0.1492245413210519,0.17601099905234635,0.038650006397193945,-0.14569274818872463,0.052651833462647187,0.10659797320634144,0.22540971011819116,0.9010719933252924,0.9569923879179814,0.7707428966642271,0.4248904559677429,0.18236541416772512
38,0.20491236442654803,0.22573446077537654,0.026956455734030056,-0.2105493062979208,0.09095076226133822,0.12952921899259726,0.05148290958871686,0.9314645465476792,1.1064742270972432,0.9666186420570153,0.5710503973877928,0.27401825076291525
39,0.2398868782716786,0.2629798479735601,0.019313213882245477,-0.24248907973032185,0.11818622449603179,0.14258539970204973,-0.021621790030750675,0.9711853852531473,1.2392466430633289,1.1147666186572394,0.6862247017434935,0.34036747643987886
40,0.27747011118471643,0.2872899162044116,-0.0011703686467712856,-0.2791485325597778,0.1466578915604982,0.13623366160907374,-0.08162851029220318,1.0082871198769117,1.3495762212082543,1.2614031919355806,0.7929151209351801,0.3946839833952189
41,0.33675974382037305,0.29927595679210883,-0.04018046213708038,-0.3129844551837046,0.18960307033953983,0.12633932126082326,-0.18386947443283835,1.027992509300426,1.452093979606412,1.4312302309488927,0.9059286475813323,0.4546055099573093
42,0.41241011441353237,0.3151326031504541,-0.10273213847408812,-0.36595691194618934,0.254541905200943,0.10595783837407133,-0.36590640812889785,1.0416077750640569,1.572014574998835,1.6089220388445753,1.0609789789705457,0.5422483919824739
43,0.5016878229506044,0.3435658119053385,-0.16852591887872798,-0.4295234821992443,0.32873539107789074,0.0889405571444443,-0.5546167019301254,1.0940368555938496,1.7282498497029408,1.832675287466605,1.2433690766414214,0.6586082028976429
44,0.5907786679718438,0.37570369619301963,-0.22092498261270743,-0.4780898672953006,0.40034087230138315,0.07800698151491169,-0.6997545708091966,1.2460118753748342,1.9452331146102644,2.0799749961275236,1.436834252422215,0.772087769693846
45,0.6422720154088742,0.3852157794233773,-0.25868464309258593,-0.5107304162444062,0.4480111696790853,0.06497730525926071,-0.7682402289364159,1.398605962049009,2.1612248189093966,2.302937640577966,1.5976082928348352,0.8522152318921714
46,0.6822472818849304,0.35871663960979877,-0.3027381410986178,-0.529912373928352,0.4976200899607458,0.025348396935074496,-0.8215148693787055,1.5170366967584417,2.3288032050801766,2.450337441195187,1.7145838830969615,0.8987734593578224
47,0.7254585028440824,0.3216514601056252,-0.38710812455227855,-0.5141956936702505,0.5557611433161117,-0.03035359134937594,-0.9061452188481647,1.6067047891536876,2.4402978404566773,2.553821529184223,1.7912483759496507,0.9314762012500398
48,0.7575559077706504,0.24907354277334876,-0.49629828586815794,-0.5077827732319046,0.6275941488527885,-0.11588627259492518,-0.9796376988174823,1.682308526806068,2.5022223047475634,2.593741731484991,1.8348218450104088,0.9534391675425427
49,0.7800872636337668,0.14843689514422584,-0.6184806946707199,-0.46416504284754734,0.6988397970255851,-0.23437265018244785,-0.983389529862012,1.7438688931350004,2.5463676664304966,2.5552833387253684,1.8202695668211515,0.9473820438257247
50,0.776172275628227,0.009875634239696448,-0.7601748834743873,-0.38638380301011227,0.7744956545421487,-0.3796631137015959,-0.9743102504715456,1.771259801609051,2.496092721123506,2.442446062119925,1.7341905816004242,0.9069354390526149
51,0.7263034649961562,-0.1044312651961278,-0.8150057885515963,-0.3088993475064307,0.7657154169799046,-0.46215174277262655,-0.9704101435668094,1.6383147943065612,2.297800047059197,2.194122455743663,1.5709432603733524,0.8254718741030161
52,0.6329298905584597,-0.12050623489187101,-0.7382451697961193,-0.23534926878225074,0.6830295126710709,-0.4349535565145527,-0.9479558770522618,1.3278881825322164,1.9258733281185627,1.8215746290149617,1.3353984924548343,0.7004139519211717
53,0.44861547028210674,-0.12281664445721388,-0.5758630016575866,-0.16157643283731585,0.5137654592940784,-0.3499887118968629,-0.9007483126573517,0.8427614883339949,1.3933940586635472,1.2573012243360266,0.9454459415137569,0.492839467592849
54,0.22705807437753148,-0.11769463970483143,-0.35489278527817786,-0.05780915900486025,0.286033791608744,-0.23958187550800628,-0.7885806265173153,0.21942218094662003,0.6814036032067637,0.5284644215108634,0.3948210345373472,0.2219059370318019
55,0.05502316986019585,-0.10621127151003049,-0.1626711492303664,0.029038513596384253,0.10053706566811213,-0.14220693728217593,-0.6729277728691452,-0.2934823351228648,-0.026106193031461333,-0.09799282034256318,-0.03777143782832516,-0.045945051964348685
56,-0.013136029315069287,-0.0820462933665353,-0.063626516994296,0.0632664385851282,0.021935599960851086,-0.08529935896524446,-0.5749439854342759,-0.64093208881433,-0.4858639957556844,-0.38307194637205666,-0.2073095183591678,-0.14016331391037917
57,-0.05183755164853908,-0.05705867967846378,-0.006879365603043154,0.06210644656415526,-0.016399750059948717,-0.0439760609062756,-0.4921986033906222,-0.6903978476282231,-0.5989147431174708,-0.42373852422053226,-0.25000785121855595,-0.1559526897103093
58,-0.04732955529067853,-0.039968709032372554,0.019960613049266704,0.05288746790554551,-0.027765054379508068,-0.011222771599794693,-0.41988568207526417,-0.6124591824308059,-0.5658796621983141,-0.39473686659140383,-0.22973389106485073,-0.12554934847499072
59,-0.04643026342840277,-0.02737224515401325,0.025229032042740872,0.040193350357368526,-0.03298366266858595,0.004583394373614868,-0.351602414510696,-0.510102605514285,-0.4932425253733349,-0.3409264049352789,-0.19074584569625766,-0.08642357036996448
60,-0.03172563110032643,-0.016627391122364138,0.023601420894433782,0.02592713859241153,-0.022757344597529455,0.011521953018717432,-0.2897246331894628,-0.42232416403326495,-0.4039038244854126,-0.26477111961004285,-0.13201977108789373,-0.03633228575317238
61,-0.012590161849560712,-0.007779259067793868,0.012908358103710067,0.01578433517439692,-0.009568332037352793,0.004276380508714203,-0.241385251904026,-0.3420519710435311,-0.3183391006360079,-0.19821860824145673,-0.07309216290329329,0.0068746392651246185
62,0.006661230014050515,-0.005025161320438336,-0.012256267804669882,0.005630159984329735,0.007219531057539192,-0.010569229570839582,-0.19178134108488543,-0.2705986884564303,-0.24684571732627103,-0.1537245834801494,-0.022178581483188797,0.036070886645317816
63,0.019856283765963944,-0.00606628866820421,-0.03736499048892522,-0.0023300853342143463,0.02583981954469112,-0.02502648576789114,-0.14611003364409136,-0.19358420201179932,-0.19011209112932426,-0.12119963711267809,0.02134468595462414,0.05990170388020763
64,0.03316893925460969,-0.013429924980784234,-0.04708064796031324,-0.0009819269088284302,0.037204640570570276,-0.032132817577837286,-0.11624141896422228,-0.13992868453691792,-0.15782259101882606,-0.1007153863026494,0.04649133578774325,0.07275526517788483
65,0.03779197643066205,-0.01575035101356701,-0.05032987875556345,-0.004474955613719318,0.03954791983367675,-0.036576214868561635,-0.1039152827038141,-0.12291772778016175,-0.14492985916759876,-0.09469189597740857,0.05148862106589111,0.07431837552611542
66,0.03532845453775048,-0.02039671054108655,-0.050406520155194506,-0.005716629516906775,0.03522525025615895,-0.03472955363465162,-0.10392393910788476,-0.11988025659286422,-0.1430632177045944,-0.09859395759655407,0.044022624572135655,0.06542695708982714
67,0.030123984705008846,-0.011157415925356538,-0.03703606543911299,-0.006622799623070764,0.028026772867025596,-0.023199413009233196,-0.10599259350623862,-0.1196388858932459,-0.14968536350219624,-0.10353897824354294,0.03316651986347667,0.05862686550760847
68,0.02686558173408877,0.00698438590143227,-0.01609496957174114,-0.009598105485828531,0.019510973760741204,-0.012420272130725886,-0.09403192918977653,-0.11105887318317859,-0.15609187753249265,-0.10488929609911071,0.027228192948591787,0.052417622714281215
69,0.027040219876984316,0.017378180953952847,-0.0026094945998277313,-0.012871982375498083,0.010666747100523497,-0.004581925042020761,-0.07929818557045784,-0.1151191309758362,-0.16337885632561217,-0.10632552318755528,0.023291971104611037,0.04874125480943137
70,0.027496303568696066,0.02287422861366964,0.0021666293844008738,-0.015217949937909848,0.008585569486958364,0.0012223078711499796,-0.06301801114733145,-0.1166140461305521,-0.17127824002483427,-0.11507628274411935,0.020792381076048763,0.04712003854953632
71,0.027390989151100272,0.013203006811404218,0.002154919080075493,-0.018367183269179514,0.011420283949730409,-0.0023664113923065346,-0.048628325791690685,-0.11847097931368517,-0.1765684712115736,-0.13071850976687255,0.015438102621325653,0.04697904303060648
72,0.024740163426537405,0.004968793479618967,-0.003073247308228109,-0.013868599544212332,0.010934792940589709,0.00038395128865035416,-0.04229090543065801,-0.12163525284498106,-0.18049218369801162,-0.1450245469295456,0.008121238164209774,0.048387213270291496
73,0.023466705744904087,0.0009616806262877399,-0.0070824759011761974,-0.010485538221416301,0.0035990037601534262,0.0005845469611376159,-0.038466816614249444,-0.12261455468986421,-0.1853607015571319,-0.15349107183976188,0.001829694344556279,0.0467831399005205
74,0.015704928356755243,-0.0028056100591681704,-0.010588587566268017,-0.009539173531573424,0.0005979009535592161,-0.0038206336169556918,-0.038754676869378016,-0.12148001035944234,-0.19054301957794229,-0.18230692266137585,-0.0018561461790820716,0.043713439455903634
75,0.00918442423537285,-0.010967307600455434,-0.015315490233647335,-0.011642583275979373,0.0035920402682497014,-0.012531618949575784,-0.037318207912058685,-0.12375693933287213,-0.18940476248078597,-0.18445787906603958,-0.0066193422560369974,0.039673543651605525
76,0.003784690944056715,-0.00673504108475886,-0.018903832646303128,-0.012580551987630709,0.00768873440796182,-0.014837888376590511,-0.0345631106555616,-0.1343227554338558,-0.18641259576139918,-0.1841322855596301,-0.018407652394747495,0.034609310450494236
77,0.0012353936023212601,-0.0038335958832362675,-0.02128875938715496,-0.009103092496171788,0.0061535494261967735,-0.018513022617710786,-0.030842863975950055,-0.13400939995873495,-0.18407818171273033,-0.18582611080221997,-0.021866415122441807,0.030855566410611324
78,-0.0003334511778732181,-0.000295965051777574,-0.01760547270641412,-0.00709663679250724,0.005089289906977084,-0.01479326572264822,-0.02747319992101188,-0.13457107549859626,-0.1836715129790235,-0.18880371556521777,-0.024900210400212716,0.02671929043123398
79,0.0006602954829337225,0.003311943071359307,-0.011289022780584636,-0.005621274278148798,0.0041020384884293635,-0.01187490038240122,-0.023514180100407553,-0.13257631592827201,-0.18350538737368927,-0.19074753276950487,-0.025007916896887,0.028597030309348764
80,0.0022616841461608646,0.004538234107959225,-0.0028629194354796187,-0.004866626328600146,-0.0035461667570880623,-0.008223535991674122,-0.018135381007778936,-0.12868156037460837,-0.1797605272671567,-0.18977170646929967,-0.02511963440430315,0.031088709005395655
81,0.002560986137515292,0.0042347833992565104,-0.0031995023674502637,-0.008842800419206948,-0.006728668327652659,-0.008483324115894971,-0.015351538495721108,-0.12495606028920803,-0.17593416957282149,-0.18571335772019013,-0.0252454764807033,0.03164817508654348
82,0.0020895221620839018,0.005443258732588559,-0.004007975849100056,-0.010455512493363902,-0.008829938257464559,-0.005801815451107586,-0.010009855721261007,-0.12066534040834648,-0.1735147738638741,-0.18049332812403748,-0.023020499492795693,0.033789745813783204
83,0.0020385935132540556,0.008274454659693092,-0.004757160018941601,-0.009999941711661195,-0.007747008042767321,-0.0026567256096261434,-0.004546440511767655,-0.11511986550133524,-0.16637236468618483,-0.1747686232943,-0.016931815357902877,0.03587624350088491
84,0.0029920729360780086,0.009176158864444636,-0.008074059440855347,-0.009825053767502177,-0.006532894507012218,-0.0013954927625357812,-0.0015036387004381258,-0.10903295064979901,-0.16173029797024863,-0.1706312830137048,-0.014551645797833634,0.035760798332374846
85,0.003005832071872074,0.00717964033314184,-0.009495042836017114,-0.006191700688781089,-0.005729710448939083,-0.002890357580264333,-0.0005755855206378765,-0.10455052648212426,-0.15902238211310799,-0.16887483345789453,-0.011405220692776427,0.036369520816728874
86,0.0009683620868466379,-0.0010121796365165567,-0.008650910518133825,-0.0013689566679479653,-0.006375813226892516,-0.007079014230102988,0.000698526148436858,-0.10144633589615126,-0.15370794658834014,-0.16692057997445206,-0.009870644640312343,0.03644682145303276
87,-0.00398752596123594,-0.004192592096541964,-0.004071963669866095,0.0022630267775146824,-0.00820805760143331,-0.01003063981335313,0.0036086467188639754,-0.09845326111429953,-0.15107402723641394,-0.16833424363684832,-0.00869320457256463,0.03340263681785917
88,-0.011074792506568423,-0.003452688689248834,-0.0021772206993560233,0.005920249545185326,-0.010604108602724496,-0.007527279672224335,0.0090894814507833,-0.09431015812473681,-0.1459231428525038,-0.17157537786108626,-0.012891699692385059,0.02825363906887924
89,-0.01058901414810923,-0.001604207666824061,-0.007038451285467555,0.005747667533062575,-0.010968518408696386,-0.004208618536608287,0.014786172580308357,-0.09024832371091474,-0.14108932607934105,-0.17201490926450666,-0.014579949212034524,0.029610921026290062
90,-0.0066186298650885746,-0.0038866357137960737,-0.007213472815419627,0.004903689415038298,-0.010070145693549162,-0.002029907694171345,0.017342656625618968,-0.08475507861463766,-0.14124947960936707,-0.16570650144975566,-0.006395737459672507,0.03495384759508215
91,-0.0016735927238813349,-0.003249435773515965,-0.004136388992141686,0.00487697901073561,-0.010129147595419791,-0.009394042597376993,0.015043018268021305,-0.07831630951911045,-0.14017483212464982,-0.15706912540171125,8.172612895111786e-05,0.0364155828966104
92,0.0006218197637017642,-0.007019608094969914,-0.00736822521879984,0.005372671933115348,-0.01050135273103716,-0.006733871589884541,0.01490625812269401,-0.07394820046109563,-0.138121834558593,-0.15269872286232702,-0.0008835359773137208,0.03621058282079748
93,0.0006869867486732212,-0.010171389290362216,-0.004224283383542745,0.005456703774583103,-0.010459927895817955,-0.006907232053497757,0.01883809071900922,-0.0713187131841097,-0.1345689137522041,-0.1517970113070368,-0.007316161462322543,0.0358889537861681
94,0.0009291625019259668,-0.010398229659190832,-0.0026832062164441417,0.003514706509954099,-0.010686544709962269,-0.00680254820532653,0.023622903687723372,-0.06866087179127656,-0.12842405787837508,-0.15119920033753045,-0.01283929713444365,0.0361630302581118
95,0.0006390803050605014,-0.006192989397158812,-0.006409654139657663,-0.0007559440351426021,-0.0057412788290723965,-0.007008138568943419,0.02672449574846572,-0.06166576966573012,-0.12282918638955637,-0.14987686921144122,-0.013848988390922856,0.03619161624469676
96,0.0017994918782165865,-0.0021574305544388925,-0.00963118183553198,-0.005666426199552516,-0.00130645357321027,-0.007059282441660858,0.02580160556900251,-0.048775621513074296,-0.12144356162269931,-0.14612045441524715,-0.00993464916854242,0.03470235884700846
97,0.006315218516436821,8.523729128415841e-05,-0.006725132368717355,-0.009625012970374923,0.0009946984508213547,-0.005847385084204132,0.02346034206758314,-0.0421203675712665,-0.11971554721321831,-0.1417399753513772,-0.006118330888232354,0.0322268468796317
98,0.008769792877314636,-9.742328565149824e-05,-0.001812354698961024,-0.011782818745253717,0.0011014257678294732,-0.0040471178666762,0.0253867623501825,-0.04174030359540504,-0.11866130422090698,-0.14330871508544915,-0.0077232616358274,0.03073831625675686
99,0.008435715702567334,0.0015415895230459081,-0.002413145391786201,-0.012253619102061292,-0.004645935859164885,-0.009197233680670717,0.030471731672534245,-0.04271496836648808,-0.11846429090150729,-0.150779156260939,-0.010572291129644584,0.03070986697157001
100,0.005699280616169082,0.004920053762796504,-0.002595813524936647,-0.01040916595030202,-0.005834524836856869,-0.01001779891738563,0.03826489694891153,-0.04164071847853967,-0.11535221774757837,-0.1564701436432551,-0.00669852626359653,0.028200273966940026
101,0.006103751537605714,0.010762325623990085,-0.0019946817873717397,-0.009488946625432955,-0.006356760327323626,-0.008913722559203793,0.04131905521947005,-0.03841861352039788,-0.11031366002059279,-0.15662708310265447,-0.002831419046449901,0.02817803895081046
102,0.006044341721981532,0.013343892793243241,-0.001459308973715428,-0.010043060632016484,-0.00792602164743024,-0.007190970795220963,0.04412155056919605,-0.033281860466921276,-0.10369886896455843,-0.1532164322068165,-0.001982346122274936,0.02868112990639554
103,0.002628008962616408,0.012169581738864222,0.002022423352321062,-0.0077477387251443965,-0.009290863007939593,-0.006105707523231718,0.043659899216451345,-0.02853845290503121,-0.09650029656896192,-0.1487840004318645,-0.0044409484420525475,0.028658709811054447
104,0.001100158642049369,0.007014537813570785,0.0016443796954617174,-0.0033168405064097385,-0.009505963334238685,-0.005932974500121645,0.045995003405687636,-0.02134438641619063,-0.09029419970630892,-0.1447477375507087,-0.006198291819964688,0.028513487322423436
105,0.0011605660186509194,0.003097352639783715,0.003042036856452787,-0.00020379092012671324,-0.010177276085693583,-0.0031027014480981734,0.049371961413739174,-0.01647025397525237,-0.0846506199573126,-0.14122470971288031,-0.008326716439244597,0.0284849581851814
106,0.0016475987246082902,0.0008617986054258939,0.000866319976399646,0.0002296203746090346,-0.009242667399432001,-0.004547822347079523,0.05492101460511172,-0.009099568371325278,-0.08008379273774982,-0.1382734935612665,-0.009742306663360678,0.028204350417157444
107,0.0017725519415060821,-0.002166972599060603,0.005813852932806061,0.004011147994780081,-0.002765942998550902,-0.0031061832065660726,0.05905050209051327,0.00035860462139394866,-0.07521346109570687,-0.13614537636715093,-0.010432597837711277,0.02857534528762849
108,0.001208993226718743,-0.003154535061249533,0.008871285825807661,0.0045819121379279786,-0.0016075527117653254,0.0022472570294575123,0.059568267474861464,0.005922655772792357,-0.0702385081866897,-0.13315310550641152,-0.007897014408571185,0.02807258732864546
109,0.0009898608544928918,-0.002027169835868689,0.010174342298431352,0.004106075148859103,-0.0014914748711443923,0.0008884276462654782,0.05912056321087706,0.010936184228507145,-0.06539819130408145,-0.12677464803523553,-0.006675600526755698,0.027757879050661013
110,0.0033489646605656016,-0.0034982603348741835,0.009106702977974852,0.004804418443793593,-0.006116563390367834,0.0012467288112125786,0.06744989988946487,0.016954438668321137,-0.060837621172609796,-0.11790407407527781,-0.006863262022852409,0.030362094635705668
111,0.0011114880613591442,-0.006849398751408782,0.0069821486411206155,0.00018509850642140294,-0.009914192876377043,0.0011169888030184837,0.07576117875337378,0.024116937282974343,-0.057740189143637516,-0.11077352495756276,-0.00636599783478535,0.03540849560256031
112,-0.0013086808376434993,-0.00801766149378104,0.004933905440875538,-0.004454431009128991,-0.008293668798354407,-0.0013999851355410953,0.08094371294372138,0.03193986068950594,-0.05628186776452754,-0.1071985654211561,-0.0052506384558636265,0.036821395625938495
113,-0.0017726031779380542,-0.00655810875431145,0.004357549258078269,-0.00606425591000009,-0.004524489853007133,-0.006470199250763895,0.08570574914512866,0.039861876430488385,-0.05201880529874606,-0.10433025871229684,-0.0017690404571400198,0.041071446049327553
114,-6.467093013046848e-05,-0.014277552661956558,0.0008258132346710065,-0.0054587103732791145,-0.0005738836082488132,-0.011345981981501586,0.09245878672402838,0.048146175212386816,-0.04555251667191901,-0.0995817623554083,0.0013820041354469376,0.045211005264581855
115,0.0005337293864008039,-0.02194356437171626,0.0005288696356699693,-0.004470767684555659,0.0012785632956646732,-0.011238388076194213,0.09903680170936713,0.05871932290228424,-0.038830731418518505,-0.09426098401418356,0.004812021770225175,0.045555925196016575
116,0.0025936327450043657,-0.023339607557422856,0.005857934811171613,-0.004384758155161889,-0.0011820747674102135,-0.0037635402913286722,0.10367639757517037,0.07159216801147632,-0.03225275092248217,-0.09182649785288075,0.00580174587909725,0.041662840502735846
117,0.00031326983535266,-0.013420412476804412,0.013158740905975463,-0.004964215007256519,-0.0061003814443846595,0.0035133133978505356,0.10820509410928496,0.08361332631232404,-0.025674768213209936,-0.09106136806671858,0.0045048152167767724,0.03571450611650528
118,-0.0019242782542789084,-0.0038634177916053065,0.01633452435491515,-0.0043148526818995725,-0.011591361645697008,0.00643571209447494,0.11458992820492328,0.0951029681035217,-0.01845456946643484,-0.0881043245032744,0.006818142664831953,0.030426350688576395
119,-0.0025925611025686586,0.002961644511129997,0.01600289219366738,-0.0020459158292147825,-0.012320454129881225,0.004763166423225661,0.12168126569942553,0.1096041670549941,-0.010662401044725461,-0.08245204907440104,0.004699709440087407,0.028460178825076003
120,-0.0026410075343257823,0.002308689864521544,0.012574230793287185,-0.00018278453950200738,-0.010630027601564656,-0.001173051093066914,0.12744763790957014,0.12419973229214934,-0.002034943128386646,-0.07742709673159068,0.0015681084707837023,0.0298558698576462
121,-0.002327056635026487,0.0020108940449365276,0.013909657688056281,-0.00019086207935915464,-0.008727337342853466,-0.004361012151740761,0.1334757198953852,0.1336449384818721,0.007555259812529691,-0.07485026070826487,0.003024455785693936,0.03079811189688532
122,-0.002246451381336608,0.005030588608011663,0.016856636437684223,-0.0019736230899371175,-0.010389190472896697,0.0004078702044231875,0.14193829522136076,0.14262190295157115,0.015516838177662057,-0.07233930336751002,0.0066846908382154485,0.031325138747560766
123,-0.005610518385751894,0.0039041430021880506,0.025691118093369728,-0.004392684577733369,-0.0129497794273347,0.008460986706238868,0.14863518802033027,0.15204710542021055,0.02198100312006096,-0.06802637420557009,0.009257583464167454,0.0337904925666339
124,-0.005837951956105748,0.00783437966171235,0.03161362450388407,-0.005980255910402622,-0.016533569869076288,0.013208670780164692,0.15632456797761113,0.165278408243212,0.03355401890997714,-0.06130457024535191,0.007524136491058764,0.03711813490914452
125,-0.005890128245068595,0.01351056561307369,0.0313176943713262,-0.006274661308636801,-0.021387288963606213,0.012887543572458322,0.1655198616458624,0.18382590707375152,0.0429775444272861,-0.052746604884940346,0.008401086499253571,0.03766121236213969
126,-0.0054225227188464155,0.011304131623542098,0.031447667332229846,-0.005179959640405452,-0.01997583663184712,0.008872681838873523,0.1746626670987071,0.2043795821742619,0.05211841154129067,-0.04554412820493803,0.007763852137148725,0.03590991448250841
127,-0.0056027638685197355,0.008922551107718833,0.028679565562889787,-0.002684219102095639,-0.021401579952187534,0.0026363319560748274,0.18175024060546963,0.2175612546059617,0.06334759944768362,-0.04180881946699752,0.00737547287044181,0.033072767109470325
128,-0.008828775322236537,0.008397173867437258,0.022996117227395065,-0.00013314264700443543,-0.025255998463528676,0.0016926630283135068,0.18950379322361993,0.22946737031922762,0.06963260018622268,-0.03970273733312102,0.011944429058778107,0.03435915297360582
129,-0.012903792090353697,0.008040973395792246,0.026263410409788607,0.002082465972876625,-0.029299495635768773,0.003237544280628947,0.2011794781828522,0.24084729534577787,0.0810202266373656,-0.03807110646410114,0.0179098331495621,0.03678716854260359
130,-0.017094965202978245,0.004164169131584945,0.027197358186303533,0.005786626647259992,-0.031039841850950087,0.001693674218540201,0.2142217298800828,0.255181594274496,0.09208173124631985,-0.03786077273521332,0.02024633894367605,0.03783783852618457
131,-0.022511533044314313,-0.0014163428468858992,0.03184665555549144,0.010666065412517346,-0.03086659130522633,0.0013258880211843176,0.2246428807518993,0.27318880213487107,0.10265593010323562,-0.03658438581800892,0.02503089664057946,0.03993705501842287
132,-0.0244597730818104,-0.004540174523607426,0.03893230523401274,0.013930962907496614,-0.031831189465289754,0.007104738366557035,0.23022466534576114,0.2932407301536824,0.11794815112475676,-0.030091791128441042,0.0228868058661037,0.03916206232727065
133,-0.025150826273592736,-0.0069277215340039985,0.04258910839373278,0.01112751137315664,-0.03323906844009618,0.010479473600491812,0.23423214664802416,0.31495719830385205,0.13384800889057352,-0.021434386312090326,0.02216659240927868,0.041595739688566225
134,-0.02492029400968684,-0.004565603539372468,0.03999639827609526,0.006758130325206193,-0.03415475690157312,0.009740525239561853,0.24411817211421188,0.33673864469180836,0.1478856741370757,-0.017949081872793246,0.02343765438310081,0.04223161500708723
135,-0.02875575727773592,0.0006739600216376686,0.043735545359081855,0.007657944484969318,-0.03304736219369035,0.008805365961802456,0.25838868082841965,0.35484240502113856,0.15759137628480294,-0.01905771525348618,0.02553232647806019,0.03972099518160539
136,-0.030552903835295558,-0.0038148667109184735,0.04094819904440122,0.012970159960404477,-0.03397181410432965,0.010955318038535802,0.26853178873553357,0.3700290418454796,0.1636085209534122,-0.01655305906011681,0.027784317398359848,0.03498002404730262
137,-0.03218108510667954,-0.0034083273831737836,0.04446778672991186,0.018358481536913943,-0.038269600589485864,0.015054101452822167,0.27759132055118074,0.38486018695259866,0.17160349183634513,-0.00648973736854104,0.02917818318138027,0.0303735964707315
138,-0.03472532198584807,-5.52273260388432e-05,0.04970893155211197,0.019185758172409608,-0.04318378529195392,0.020600779845840023,0.2875385832631846,0.40014692319052975,0.18494681118802223,0.00648544992120087,0.029281205838419623,0.028031926896741336
139,-0.03625690749142496,0.0071257476995325,0.05442041858725026,0.017529299368593185,-0.04612426195248079,0.02158612574684029,0.29877024886007647,0.4178001137149328,0.20040854907395947,0.016482397680201252,0.02905145289438476,0.02587251140227699
140,-0.03547712925978544,0.007725869234655049,0.05069928312537597,0.011929067300458725,-0.04732516551213818,0.021851232491476722,0.3111456169699426,0.4386011833262553,0.21438815894857277,0.022824750799634336,0.029102124226889577,0.016238936617381593
141,-0.03485845186806366,0.00455621745106821,0.05123128582337165,0.00939002884242918,-0.047943539270620936,0.0219583511042609,0.3222424859590246,0.4600975563922052,0.2269781813047116,0.026883383753253,0.0292067359587794,0.015621919996588917
142,-0.03585823241135207,0.005225749646436951,0.05321861299939537,0.007479855338454525,-0.0487310647648455,0.024886689165020997,0.33049657654359876,0.4783306537353937,0.24030290843085045,0.030175695202608224,0.02780154290223253,0.012856993100157841
143,-0.03911134859031386,0.01015814850077101,0.05562647914323096,0.008661343824247398,-0.050623593654561566,0.03071599227427597,0.33776418093516364,0.4933299831456147,0.25667013565019814,0.0353246168055824,0.028061283466166827,0.009087877870499507
144,-0.04186329350898654,0.013117580374849416,0.06311798561332928,0.010551736726341309,-0.053816917381769885,0.03294181060659773,0.34594195138690953,0.5094789842560663,0.27609496127599487,0.04245885870604948,0.02755607309001718,0.0042978413470106495
145,-0.04441785241511445,0.013105643379380659,0.06592434458572846,0.01530716114346278,-0.05636550779016336,0.034644281670312166,0.3541897530420834,0.5289500121738826,0.2932203227265069,0.04991610107940483,0.026000407762956083,-0.0015548525351498643
146,-0.04574035102635762,0.012854229107567536,0.06650605622486251,0.016094117584990884,-0.05756229926550001,0.036072449563616715,0.36209287425200953,0.5482286798913851,0.30513201638591103,0.05343102249803528,0.024667091258509813,-0.006415013094075252
147,-0.04757619582424233,0.012848240624167458,0.06831407783731154,0.016579599225431705,-0.05939514982168469,0.03518375162336901,0.370567557676356,0.5651381539725793,0.3136349614436399,0.05365119941807893,0.020724952279910266,-0.007130140122689851
148,-0.05211516552368883,0.012465347939630665,0.07078304167275971,0.01576658767648236,-0.06311381976087496,0.035812636952579815,0.37846422587778195,0.5819775666152905,0.322774021333597,0.055793523158285736,0.018157892893192806,-0.005380051581584035
149,-0.05708526756252691,0.013645630706828964,0.07334600736251613,0.016990291462154587,-0.06686092422803232,0.03585169282863733,0.3875237382236033,0.5977576246086728,0.33429473486355915,0.06054541100716897,0.014916226324873605,-0.008074387280608643
150,-0.057899648767591794,0.011206434021328985,0.07708335646378286,0.018415638016377748,-0.06824473597067686,0.03624096131172771,0.3972212261693451,0.6122440647795191,0.34628257967736276,0.06460379300992009,0.014225943102576272,-0.010292404123437203
151,-0.05514094138135828,0.011177698601984205,0.07617260460621635,0.017107629473056416,-0.06612462436770909,0.03729558237974371,0.40424518236877477,0.6250765750209681,0.3585683414720978,0.06867006625715362,0.016345537396378895,-0.011947985708274461
152,-0.05453622413101748,0.012928982005879362,0.07516172080008532,0.016777350681176677,-0.06311996737524692,0.039299298052417726,0.41066948899785666,0.6407127174688849,0.37265192499484634,0.07538426552087193,0.0146614412377108,-0.015147875067297534
153,-0.05660208326107043,0.012922929988978704,0.07631192058886636,0.017101493457281434,-0.06548181373820298,0.039898455430205454,0.417929908330206,0.659041228481662,0.3862040534831839,0.0818860609729898,0.015072837775027326,-0.020714131882555435
154,-0.060447717781011934,0.012514175309745091,0.08019011762859035,0.018896755524756403,-0.07354618420415632,0.03985436128834952,0.4236146042839845,0.6781935730991471,0.39676799842209926,0.08319776175442276,0.016190545335214628,-0.02800183540488021
155,-0.06476124296962307,0.012138916302971238,0.08221880419623698,0.02080340884545599,-0.07622553480646745,0.04256247198911439,0.4287219101002773,0.6968675878090402,0.40590693345438433,0.08055271497925087,0.015270736184304086,-0.03532060599260782
156,-0.06690267259198569,0.0072073191780877115,0.08016030017047737,0.0223379074014449,-0.07869148982836344,0.04061281766881412,0.4334446528860153,0.7039839368336931,0.41453249954832994,0.0792479667325023,0.008687963187720263,-0.04642901489250263
157,-0.06799629755331353,0.004230785097404061,0.07966193028806962,0.02427238976184586,-0.07978207017669932,0.04105693851216907,0.43694726595764954,0.7097328308400541,0.4214416611914122,0.08204935204610488,0.001843673749625116,-0.05149921867712083
158,-0.06956276882471463,0.004459117054951745,0.08337208513761196,0.02486707354832911,-0.08081710510102054,0.041582623214597034,0.44037650399960354,0.7154181938585416,0.42763413686367935,0.0885820078910464,0.002553463847751458,-0.05088969218726205
159,-0.07169499766681052,0.005673927937774256,0.0862865489274289,0.027274518137428195,-0.0803790613384504,0.04366781825746134,0.44246863683221815,0.7202411155276884,0.43556057512102514,0.09507689621563778,0.0013566434081904999,-0.05223636789753763
160,-0.0724962722873461,0.004770622556395066,0.08424052273476453,0.0320458912397253,-0.07974918424884422,0.04056557473934936,0.44913716374662493,0.7285797887814953,0.4436445972231578,0.09587322757109096,-0.006980289069601325,-0.05835155254492026
161,-0.07127824955396737,0.0033239143832611076,0.08111671100405456,0.03422617528254075,-0.07759488336039107,0.03810840331891694,0.45693696406488865,0.7396156421008513,0.4483905154258526,0.09183328957897811,-0.00972115750402601,-0.06461125090416484
162,-0.0712889650051492,0.005004823649527736,0.08185719344515399,0.0346327298511703,-0.07648197214735207,0.03867758339487477,0.4606360292631027,0.747345559111888,0.45212042996935936,0.09067147142907551,-0.017029154755311735,-0.06670890311757736
163,-0.07439894624679681,0.00987868932990081,0.07335095404682697,0.034595442142760446,-0.07415375758587771,0.03174532619424589,0.4646490444474532,0.7533571806616703,0.4595988945403659,0.09423553535650699,-0.023559037653300502,-0.06848361755267361
164,-0.07545037631327708,0.007780449837060312,0.06988491642304434,0.029909078785043616,-0.075403157591698,0.03811053893915806,0.46215346381396644,0.7529880150582442,0.46845494289395256,0.09354222202491796,-0.023933065437657372,-0.07156257766601423
165,-0.07640464591477847,0.0067340930576514114,0.0749548227327014,0.02705494476079576,-0.07872303345745624,0.040730495736829346,0.4559097777263826,0.7444321065563453,0.47274679703443173,0.0913930612638274,-0.023920725226577205,-0.07328541299023632
166,-0.07641887575881812,0.00673299518311464,0.07477163706507474,0.027181781970391786,-0.08035895618385423,0.03926680153840483,0.44806753402299787,0.7355204695302624,0.472420722215474,0.09226354915103903,-0.02397292276981032,-0.07430886689368742
167,-0.0719323795460478,0.0042680975006298,0.07028632063336177,0.027381886721554543,-0.07901988706283905,0.03753384775290743,0.4463383774958883,0.7298037119230487,0.47150493321433107,0.09192874379761079,-0.02255989207133527,-0.07379505475721744
168,-0.06457512601623049,0.005733179533912546,0.06426018708228648,0.025586194643179832,-0.07283654946854538,0.03114911634996159,0.44296031582030115,0.7278000109045402,0.47183911764483133,0.09175988190968001,-0.019828173365628796,-0.07227289878229928
169,-0.06086846662194384,0.003113645854826175,0.06578092795943839,0.024444196574113498,-0.07172587160788259,0.029618631962560156,0.43679775652526753,0.7270107489523243,0.47250008702756663,0.09352495860877688,-0.018473913044660728,-0.07217527091124117
170,-0.06329120180389548,0.010771109850589195,0.07322572902281725,0.02092840332304168,-0.07552711241982889,0.033152117568813366,0.42827116784364877,0.7239043300388404,0.4711884773288725,0.09923328821115665,-0.021757460360160047,-0.07511303596107434
171,-0.0627734916946134,0.013525238233913448,0.07649643528489376,0.01799898862389516,-0.07559734672223094,0.03489552375993838,0.4170470413845829,0.717657352774983,0.4664268574454405,0.10448810664911494,-0.02813487632940058,-0.08117304795470606
172,-0.056978847781909786,0.012589442606010633,0.07548566027703364,0.016623359202130875,-0.07006887743195918,0.037727053610030224,0.40279311954829916,0.7082060219355961,0.45941838242664385,0.10170989744174273,-0.034577093196065556,-0.08925303680564582
173,-0.05398117524813868,0.016003746763235,0.07534265751029857,0.01809918032977233,-0.06739742760275598,0.036998476809647546,0.38908675687763694,0.6921888407042873,0.45114342465755664,0.09592220340201639,-0.0394959835997746,-0.09286844627765466
174,-0.05122092012672301,0.013746509876739985,0.0687220175639545,0.01726275304261991,-0.06461451745841901,0.03280877216441648,0.37604864546657996,0.6730088874071458,0.4412862095398621,0.08761460706006934,-0.039704533181770446,-0.0952574700129007
175,-0.047096037227608606,0.011246780043870324,0.05717107235242706,0.016469886389092105,-0.059220059763275185,0.029287675813720302,0.3662898477331048,0.6539038271483617,0.4314701313173776,0.07974958307866807,-0.035503812150821754,-0.09349527900025835
176,-0.04105650476619267,0.008306457270765528,0.04762055274071866,0.01432891702606023,-0.052301730434183166,0.02778775610737171,0.35059839170027657,0.6344440203460413,0.42132777410022837,0.07564951319947699,-0.03795795518647822,-0.08879133266830311
177,-0.036796760940194156,0.010802255162599066,0.043494590202367976,0.012497036441760766,-0.047743995279484974,0.02317027613149144,0.3360708613380035,0.6071231410311329,0.4107007648957747,0.07475165963203587,-0.03672852694534634,-0.08556948422876058
178,-0.0337104625855708,0.010923966591448878,0.04066479486611888,0.010781872606793603,-0.04482971158251707,0.026479974197970046,0.3213646886085617,0.581145713852415,0.39750528089022913,0.07291224110077676,-0.033305632913933944,-0.08284426027712573
179,-0.029736620008411933,0.011927323252235666,0.03754285368066363,0.0069507967229781135,-0.0419655126567646,0.02781835196110409,0.30227995471522906,0.5572243017897829,0.3818294035501276,0.06718360667712625,-0.03126646562727567,-0.08017697077699451
180,-0.027132950892537668,0.012434228096844135,0.034759049400688045,0.001426676832957472,-0.03813138493401545,0.02950834412837562,0.28474163419370735,0.5345180119153713,0.36788724565477254,0.06527412659688109,-0.027657502037605336,-0.07850796532867155
181,-0.02575257022380136,0.009283933032194346,0.031100762417029096,-0.002936078232175305,-0.03158566861641616,0.027218932877781783,0.26744861258057046,0.5104567401369147,0.3555801820044444,0.06756926945160019,-0.021147805413868154,-0.07223352172680986
182,-0.019060290635452826,0.01130905624842391,0.02671083063173666,-0.0037989208379784686,-0.027256297397380794,0.020953631705002047,0.24738893627449665,0.48555843520713743,0.3383758674735339,0.07138179899114948,-0.016162302952440658,-0.06585419620978307
183,-0.010229262220236995,0.01230362282028423,0.023091368321278963,-0.0051358088068729525,-0.021500335023583735,0.023097700054639292,0.2255538331872487,0.4618849315669697,0.3155450933417733,0.07394592338484979,-0.014802038046019553,-0.0630718376089601
184,-0.005162624384338611,0.013118223633863196,0.027800006054298172,-0.004699951129317006,-0.01686485976493566,0.02296094759751465,0.20477530971005664,0.4382057216743125,0.29545484217510465,0.0735185872799203,-0.016237459764447112,-0.06451565817392096
185,-0.0034723437536580033,0.01451486052485271,0.031942472706547424,-0.007392057186635714,-0.017646463128077397,0.018659589008069365,0.19230499689173458,0.40955891778307996,0.2763155046498037,0.0706293686772457,-0.018770824964588387,-0.06802071250713593
186,-0.005162217835444665,0.013869056543725541,0.033638690995081946,-0.004902094047958553,-0.022122869889726962,0.02426015874265001,0.1813951707929814,0.37882327273116223,0.2575788663393182,0.06511375354104054,-0.021801972624971203,-0.06570957258977399
187,-0.007351527421418102,0.013865415631511446,0.03333242650536096,-0.0036058874794508526,-0.022442234435850715,0.02066230174780842,0.17012981546122707,0.3545508494329702,0.23912343525142116,0.05663565718877933,-0.021702408828142394,-0.062457890345868655
188,-0.004020070346421222,0.013984480113353579,0.02502064758436874,-0.005331148257870268,-0.016407144088456595,0.014541928373644555,0.1581560503685085,0.3358014274016875,0.22045119719823136,0.046809500803633955,-0.019110380824489834,-0.05566690271893017
189,-0.0008319425933354212,0.006347877099523294,0.020322280490062225,-0.0050471016163263945,-0.011792899551014695,0.011271006749158152,0.14291083960841106,0.3127559904258006,0.1998643539010583,0.040369001377452925,-0.017388246237996535,-0.04927609871231521
190,0.003978745699633343,0.004824050995238808,0.015299172033995553,-0.005078285844720223,-0.00839572439071844,0.0032854017867532206,0.12614178454180866,0.28358614608363825,0.18122680925355153,0.03834014138505056,-0.01343096130485702,-0.0482719570815342
191,0.0036207709506551264,0.004510354771062548,0.01571184427715749,-0.00496001553436588,-0.008781047886788535,-0.004358287817972496,0.10995653578674415,0.25851407451090863,0.16931825756905636,0.03598463674150585,-0.010696198288918213,-0.04870921216680392
192,0.00518347264716832,0.0025073597597865763,0.01249672025572901,-0.008833261538530895,-0.007222457145697199,-0.004344345672290342,0.0961004754118256,0.2305805898272392,0.15676743548928038,0.03607986527806197,-0.012377490518953455,-0.047704758077959195
193,0.00913982069356983,0.005894596568436878,0.008220255365628124,-0.0090897299424352,-0.0031212849620469267,-0.003941111665317726,0.08561839934195753,0.20978360661392256,0.1487483038948218,0.0331157725615367,-0.015141741511211407,-0.0442483683613111
194,0.009898768970407812,0.005609932840687001,0.00846867013663681,-0.010983415634209395,-0.002155186765308237,-0.0034608682182342707,0.07720804529833107,0.19046022602070867,0.13894966337360426,0.027868747075115947,-0.01762082138329489,-0.0366478327334715
195,0.00982404835952571,0.0021263717187300513,0.010452937144779573,-0.01119326286416815,-0.006229218049928112,-0.0003953145290950943,0.06823761696919713,0.16781177319979645,0.1272710159592091,0.027513799596193517,-0.018833409432406092,-0.02780815725943478
196,0.012125193211318042,0.002056440264946847,0.006664060406034955,-0.008363521414305582,-0.009719932504266747,0.0025129226736396388,0.05890492982539025,0.14475821237554845,0.11618805837569712,0.028898795051849814,-0.015169821131123987,-0.025274446666786972
197,0.009426336458193171,0.00020783043252919908,0.0009613292029271893,-0.006289248170048677,-0.0033368089343167595,0.00314431440927209,0.051458072692958934,0.1251332577664252,0.1074628290122871,0.026519927775315137,-0.007694195694297384,-0.02146499081997861
198,0.011514768515633135,0.0007593713175315028,-0.005219506009124958,-0.011137732353870881,-0.0001195314253022127,0.0029702316458124697,0.04683381486998174,0.11000810788054838,0.10068188982558181,0.025061259533948124,0.0001723759423241794,-0.021941703751592705
199,0.017935288555736995,0.003887573191069922,-0.010517606157497049,-0.012085017027043558,0.002380548581733564,-0.0002523508553141255,0.04359121926694323,0.09941544692734658,0.09387705533279077,0.0201749263548526,0.0036729308234180053,-0.025278775943945515
200,0.021615559325982307,0.00348444067286628,-0.008178179565850598,-0.01211601698038767,0.006888262462129962,-0.004141631739421575,0.03907020670659744,0.09065862969781331,0.08505274971778885,0.013489216077936447,0.0021246049330309186,-0.02603108237520327
201,0.0197345985012662,-0.0004214336455307839,-0.009092420696964759,-0.013359623398396418,0.008879759962943053,-0.005647182036180772,0.0341809904165881,0.0802380272359764,0.07479996301273714,0.014615974513543933,0.0013962739956461523,-0.02125053484073801
202,0.0194997215085035,-0.0053900502433616646,-0.012049805060058897,-0.011164439891056907,0.00908534397280695,-0.009071176142369328,0.02927968293235956,0.06852824474832575,0.06653981744704456,0.014212195874230032,0.002614680053928467,-0.018875596068996338
203,0.021120790400474834,-0.005912472576928628,-0.01265467511794801,-0.011453054407640908,0.00884417158399515,-0.00891836231856184,0.022819855085280196,0.0579285665017408,0.06345371559495884,0.014068693026894966,0.0030986637698547093,-0.019186289557467248
204,0.017368676292936053,-0.0008801439799790561,-0.010779089183173225,-0.014122282749971033,0.009145739602127716,-0.00938298154164707,0.016187651924800983,0.04976235180083588,0.06653143376854505,0.01327225041968036,0.002184872540980945,-0.02134140207601523
205,0.014146455116142247,0.0009234582333907428,-0.012779251167926439,-0.016135289712004626,0.009955521815111425,-0.010846442344969091,0.010914778719575427,0.04381417314400435,0.0669773563512093,0.012391950476800459,0.000611053892815433,-0.013618687665122822
206,0.014238938775562034,0.0012954490364913938,-0.011867796556150778,-0.012902583011589872,0.0098045050800247,-0.010492856280343346,0.008280042653969776,0.03778542198716742,0.060341607892924407,0.01457377455208718,0.00032791629371546616,-0.012869107197909603
207,0.01427904084835253,0.00156019757844484,-0.00841138692050643,-0.010987493757485386,0.008104108373771316,-0.014657461317576361,0.010267327847534435,0.029313491122695545,0.048533999826485846,0.018254175234561215,0.0009328862494685508,-0.013462263321690648
208,0.014079723781176945,-0.0012466686519366083,-0.005976098467487383,-0.009480492969555247,0.006593202391255611,-0.015071071127174604,0.013390853561696517,0.018929259917785185,0.03854209787011506,0.018645705233331686,-0.00040519544282976994,-0.01417816625381272
209,0.014178359367610312,-0.0028449448757225555,-0.006349066119592458,-0.009527868772142381,0.006693779968318506,-0.013162322661465936,0.012888685700809616,0.00883792105677994,0.03657071726055511,0.013945337808570088,-0.0022271724155820544,-0.013366624519588352
210,0.015509035154018193,-0.002845450307746064,-0.005607010688537024,-0.010658289276981349,0.007559373143091403,-0.013276706983939016,0.011323888769003056,-2.785311302716531e-05,0.03953769224674389,0.010517977264344974,-0.0029314236877119038,-0.01208068454609447
211,0.01776197208232324,-0.0013137376934185853,-0.005961035236659767,-0.01215020210545082,0.007890739539561037,-0.01169369257424103,0.006081401967454256,-0.00796655714320016,0.0391830237692683,0.010735986263956152,0.0012906041576276756,-0.00882783078968765
212,0.017024737876613277,0.007414661842148828,-0.007642130991922532,-0.015155013619617507,0.008412221991656026,-0.010381180188675568,-0.00024020154185670772,-0.01403739874382201,0.03424619083233846,0.014636958605134254,0.004331878007155343,-0.007314495354477632
213,0.014428190888577715,0.004916873828643763,-0.009869950729724882,-0.01894095043331733,0.011046624952028267,-0.008145470304672926,-0.000767641327783751,-0.016452210969078646,0.02934980462687814,0.017290495649201237,0.005241199301756025,-0.008311351523563104
214,0.012618810318876135,0.005181410854851911,-0.009876685713351428,-0.017725086182670227,0.00842020482483197,-0.00805260552603491,-0.0014245818379086117,-0.016171026424995266,0.026689600903109123,0.015262896395682402,0.004977681281099877,-0.008665837886592052
215,0.01363259309668977,-0.004015430912419838,-0.015292215726749728,-0.014331878736177814,0.009369545104285115,-0.008978509223138304,-0.001573976837880721,-0.016759841362731842,0.026183380440883475,0.010530607438467274,0.0026638053118639426,-0.004273585384905507
216,0.01647873687063002,-0.0076496149798688205,-0.019565902550480973,-0.011946702690149795,0.014095631115844597,-0.010972619204000647,-0.0015363615472261394,-0.015005243306448757,0.02735222301865317,0.007439366201298023,0.00046330084923433545,-0.0027422365763409146
217,0.017824221251935828,-0.009544093505479329,-0.022925305417967133,-0.011931215226670107,0.020800870075779656,-0.01309251786496398,-0.0016215811707911143,-0.01735703971863109,0.028515078293333884,0.008384820160080159,0.0007366356071618757,-0.009576392336544642
218,0.01864502612128243,-0.01073772128573074,-0.025433722860930874,-0.009958879342888461,0.02546920248059048,-0.013797360298383904,-0.00184159962533538,-0.02264033383639244,0.02899522632304269,0.009288112517308225,0.0009164043340726125,-0.018798171634119287
219,0.01414484794855169,-0.010039184478499417,-0.02878855583835164,-0.008651482357825029,0.023847152535094465,-0.016619504424021502,-0.001939046985796812,-0.027725106923155746,0.02981368254825445,-0.0019148736793687948,0.002734873774466351,-0.024502376711973327
220,0.012293502293400087,-0.006702829837294203,-0.03127389796601486,-0.010420603879968819,0.01779490858944412,-0.018060315946064668,-0.0014468362248169497,-0.02979803689417332,0.03098236085410619,-0.006267562315264014,0.006195806741582002,-0.021082567889947702
221,0.01089281270707669,-0.004167898802289349,-0.029626362866034758,-0.012775914617755214,0.013616915556431766,-0.017092621734092733,-0.001480171751531409,-0.029944852779765607,0.03187102919865514,-0.003462247994366549,0.005787610129885309,-0.018269130153412062
222,0.009795617543151,-0.0036427705713590643,-0.02238648656496514,-0.01220902650459977,0.011894682186904412,-0.01318579556141389,-0.002170416625434858,-0.032510435775414875,0.031638567871858425,0.0002852875315361991,0.002004553066999301,-0.01798356296853896
223,0.010769667121595435,-0.004089549808628978,-0.013711100124335074,-0.012645446662750678,0.008600332968413631,-0.009931346457419483,-0.00168434924198764,-0.03754655275319685,0.028603897670037515,0.002384985758879077,0.0006138485526142462,-0.0172424566766317
224,0.014225004728105044,-0.004174083958067874,-0.01656431474073479,-0.01222294489386447,0.004688737916067222,-0.009785810327290284,0.001633432112624629,-0.040663796680399406,0.023777316751702415,0.004865619695577764,0.0010039272796838472,-0.01480203108956879
225,0.016956185839653307,-0.004065142700708051,-0.019311500393543644,-0.009483518204910741,0.00468677450994185,-0.013569582088144315,0.006454832306078823,-0.04082257754115878,0.021151211099844358,0.008776685286844693,0.0023861911423970206,-0.012875218744491351
226,0.01509384539916141,-0.004669510830485429,-0.020979460666714134,-0.010887918961909146,0.006815665157902672,-0.017743171142031514,0.007985167161185552,-0.04080066934091647,0.021146138200680425,0.009298490020422281,0.004736707394495707,-0.013158910999948384
227,0.010155646767538825,-0.007321781796356425,-0.024497668746593315,-0.011439381647951406,0.01000847067062364,-0.016680699105933252,0.013362721452023503,-0.04096045686951941,0.020329665132411745,0.00955115808690718,0.0034026023124898025,-0.01525822630124525
228,0.007575179313547953,-0.007269963228830577,-0.02342415784285315,-0.010613059763703433,0.012323694835101099,-0.01762551946849626,0.014330536962057418,-0.03913637423953206,0.017890474884657975,0.008897748938284628,-0.000573240869759864,-0.01774630931347084
229,0.007580797823016662,-0.0034335403885225532,-0.023463792646564837,-0.008176108344783047,0.013214153206651275,-0.0179193231398803,0.012101270516189765,-0.03686903166125122,0.016011261814295935,0.005692940573108041,-0.0012398294854077258,-0.016309057616115015
230,0.005413905304059531,0.0021647118371826285,-0.025733723242652762,-0.004552339424023961,0.013153279571577088,-0.01979088704451283,0.012754342961342955,-0.038766977161208804,0.016012120183895223,0.006814578843097802,0.0017828234317406877,-0.017587157283463217
231,0.0005266898707327917,0.0018552640258273426,-0.02468826898967054,-0.0008040348379113223,0.0136467497864888,-0.01794912418182078,0.015718814574064842,-0.0436853004112491,0.01788708141949763,0.010949286126433075,0.005876319457412682,-0.01832658359070012
