idx,I,II,III,aVR,aVL,aVF,V1,V2,V3,V4,V5,V6
0,0.06432093806047898,0.021315191889483515,-0.03514738086460516,-0.04147652681613551,0.047746075986243655,-0.009240077475408262,-0.1043475240834877,-0.0632371459683447,-0.044080921467700054,-0.0389743888515596,0.00573065438919516,0.1022579389786254
1,0.05858145843769651,0.027830813644032667,-0.028140818726124558,-0.043245957185945844,0.0455616218996107,-0.0024789855288933774,-0.096098315819933,-0.051706742391559576,-0.03728564572177206,-0.03532995461702081,0.011948510542897504,0.10785294593923206
2,0.06168319857602402,0.04338178468788836,-0.013200376174436628,-0.051457934315740333,0.03932357934143728,0.01152111544579852,-0.08660829952380017,-0.03918976306420559,-0.025079400624461366,-0.0315678855227191,0.01747470474471745,0.11408974704225872
3,0.05970857309230536,0.056936874306920605,0.003545856134251661,-0.05272618575713832,0.03206401123881192,0.025317216711385412,-0.0772546200062105,-0.028546451274050675,-0.013372532444269723,-0.026188306986098045,0.02279060282227255,0.11632807424912467
4,0.044466584103847205,0.06029908477842397,0.020150244163101752,-0.04641574196460246,0.018181546013497016,0.03478010717767043,-0.06697306795838542,-0.018142716124989442,-0.0033855534603984966,-0.018998520236267774,0.027724120075639333,0.11471989257547746
5,0.027794844912361033,0.057992303273827664,0.03727923273143781,-0.03930810284306662,-0.0034210991719774327,0.04169968855642415,-0.056627849652716056,-0.010932435847671354,0.0038734629575368816,-0.011510649041315837,0.029518251518217506,0.11134925936512341
6,0.015110178798570961,0.055866617631081535,0.0465635779206024,-0.03705275334729414,-0.015384292175992551,0.04519188309585578,-0.05179307906232375,-0.012469628251114386,0.004229363238129975,-0.00865226113623909,0.02995080189089301,0.10593595386861995
7,0.01771053573277092,0.05261991223125442,0.04057959725477625,-0.032393687507934844,-0.009268147273498844,0.04274557441079119,-0.05105781462107703,-0.019567986411291236,-0.0020035573303928333,-0.014653927518407939,0.025999541518389957,0.09960666702747215
8,0.016702486566384647,0.04359999582064844,0.031175296636849877,-0.027487923233221825,-0.0011133146602039846,0.03288705321062092,-0.049566644062055146,-0.024315189529144368,-0.009977459063536167,-0.022477154183927456,0.021551434062959084,0.09511569406517523
9,0.013057398652720915,0.032237788873944365,0.02590972142229897,-0.021019960368390905,-0.0038308619784044257,0.025314538765251925,-0.047304830539973836,-0.025234344915812855,-0.014835994407342568,-0.025642083383581663,0.019739314844768503,0.09127294358283002
10,0.002367400836758053,0.0236775173604569,0.02523538612539364,-0.012602789688133775,-0.009430631826911869,0.0207176041337283,-0.04488000736162796,-0.025509067338656745,-0.017074212945075808,-0.02631467282741444,0.0187670771212649,0.08533493953827609
11,-0.01561906685336027,0.01838613932406255,0.030195994881646857,-0.002676310025516439,-0.01889763059841589,0.01914115024225966,-0.0437922078045898,-0.0249668452704341,-0.019055546326848,-0.0295084977954206,0.014060173368252727,0.07885766140352264
12,-0.023787163117913,0.014019649606076656,0.03379291773721761,0.004540090240166525,-0.022984421271757198,0.017011406819572437,-0.04364474508446901,-0.021407211459313544,-0.02029657723525983,-0.03368731382853968,0.008864384990107513,0.07486690342153027
13,-0.017232003228598827,0.009615639773110116,0.03355971523115338,0.004936180548749527,-0.02741468221679092,0.012025240313072942,-0.043666696479286685,-0.018993389688056958,-0.021708624481542007,-0.03739683554411808,0.004106962552401252,0.07296619806111472
14,-0.006196313168201961,0.006396778854439712,0.018392933460899596,-0.0008782235805654074,-0.017049560221077655,0.00470783887395892,-0.04525301176419097,-0.02309227008766543,-0.024098958066817423,-0.039990517731285924,0.0005110782142536338,0.07053377992069038
15,0.004542177714809727,0.004173748520248145,0.006380247560830651,-0.008906039890112523,-0.005843548619401816,0.001078773557133884,-0.04844815405172441,-0.032431996905747974,-0.026137869275493268,-0.04359331724977533,-0.0026416611211642835,0.06646953782003501
16,0.008038795515183102,0.0024764594392147447,0.004894889039527665,-0.010918304892141802,-0.0007845821934123255,0.0011049367476507988,-0.05005794763383309,-0.03692624125213369,-0.02881648274365072,-0.044986042490689965,-0.005134366601033131,0.0626972807062403
17,0.001685896975349592,0.0025113028768699603,0.010939923427510153,-0.004401645188006038,-0.006091607538721403,0.00448862953030866,-0.05001594435156697,-0.03475899471670202,-0.027724119543096278,-0.044502364213624274,-0.005534655767219038,0.06142368860873035
18,-0.006925748850696118,0.0027966446328886296,0.01401976778146027,0.0008309087889246287,-0.010589938095815704,0.006174631411630558,-0.049688368338472545,-0.0308622859611662,-0.02614683486494611,-0.04431090363576646,-0.0031437431805296547,0.061615743714122796
19,-0.0072031948616027314,0.001590343882088818,0.012697642348643947,0.0008123741317612367,-0.011126945655635226,0.0036544357025865455,-0.04864924400368807,-0.030215671506144647,-0.02848819456885562,-0.04733652847337905,-0.004360435352605576,0.06069247193018711
20,0.00033567886787273533,0.00032435652174207276,0.005337189349873975,-0.0011914189162925744,-0.0056689003099942015,-0.0016888596652467414,-0.04886798885102317,-0.030830348175231514,-0.03139851382759131,-0.04972230112104845,-0.009271793816475766,0.058157769873024415
21,0.0005346910950301594,2.699159285389323e-05,0.0027826745454312025,-0.00031343725631559696,-0.003586794351080887,-0.001222090178140586,-0.04891164708129141,-0.027172419963225607,-0.03128651035245321,-0.04826057733769595,-0.011101112371948014,0.05509093664134945
22,-0.008050509806491997,-0.0018523829301523558,0.010509932316240955,0.00574323727395766,-0.009483129951907683,0.0020124683419503898,-0.045495612443446014,-0.023171705786735525,-0.029675431320540673,-0.04515825573452817,-0.008493694247244662,0.05252639828176639
23,-0.01655948136998496,-0.005278047976073142,0.017940894589643125,0.013040147686498837,-0.015051392267215113,0.0041053269963565505,-0.041012076319008425,-0.021785886600992475,-0.028607835732692058,-0.04457828716489522,-0.00662137119180687,0.05140329317955793
24,-0.00966780833131969,-0.006201809470914584,0.012602205752719014,0.006395939505760142,-0.016812590216451977,0.004266705129984184,-0.030125139656514484,-0.01784404303112884,-0.02565531603220566,-0.048528056130708055,-0.007585771134679554,0.051594247495378116
25,-0.01607276361567931,-0.004179663168783742,0.020340642966826424,0.004974748152734368,-0.015274902467750026,0.0064535078065575124,-0.019511027102739054,-0.00912557155189753,-0.021248866512428063,-0.05470180649107721,-0.009367502221946582,0.051201186879906234
26,-0.02560010655075578,-0.00515245965946786,0.02979108088548021,0.010350152792097765,-0.02508567040878479,0.009020817805085719,-0.0006960451838527691,0.00016654323812202027,-0.023371831629643243,-0.05979166649609602,-0.014089690827421657,0.04718912805355607
27,-0.039250065073702475,-0.0051481857667460725,0.04005044890005323,0.02534591441624422,-0.04140902456011599,0.011531470160879725,0.034926341890013396,0.005138199268620233,-0.027781613703278755,-0.08210505122832829,-0.028618130461515776,0.03594555555250932
28,-0.05867643582339606,-0.006091525173789743,0.05328776931355915,0.03772194907054391,-0.0554378519284555,0.021806119100994156,0.07195917460988246,0.010369449026923418,-0.031563694745304016,-0.10772123809607481,-0.05413135238119265,0.01596671073488247
29,-0.08555181002705357,-0.00890857250551996,0.0824992933697449,0.05047504323607982,-0.07630746055822601,0.029586197098846124,0.12171007113093785,0.029810172339532225,-0.021514436090790172,-0.13649045942524687,-0.08881803558121355,-0.012086521739935456
30,-0.10385017074481069,-0.02068640322614192,0.08565350625732672,0.06577196191058503,-0.09080384966155353,0.027734201597683174,0.19677739419393578,0.10155238492484576,0.002789314677359523,-0.16849765821155202,-0.13663298589535716,-0.05099895523858002
31,-0.12285414392611367,-0.04121018529541125,0.08611557707810881,0.0872943829986484,-0.10098623541954825,0.017837853166486048,0.28062651241512027,0.22309249109873922,0.06319823461532295,-0.20641396924392655,-0.19974466519192785,-0.10571827322119066
32,-0.11503267537849017,-0.06847396006952777,0.052142580427534876,0.09190466957805832,-0.08185377699673274,-0.0064137813728027925,0.35835153289965704,0.4421271262279367,0.17289808123779976,-0.22688010921305674,-0.26026663509445946,-0.16270014993016874
33,-0.10890269994827503,-0.09058262514299772,0.018308618590451103,0.09306146167963228,-0.06116579489317608,-0.037982683813888696,0.4086538591120499,0.6963342995152546,0.3121456849990093,-0.215551629097084,-0.28731155748033443,-0.19917635293302824
34,-0.08768469824968629,-0.09524166529906694,-0.01360173755657048,0.08846721176139008,-0.03903475314075662,-0.058624039267822725,0.47065189344165564,0.9011277080214546,0.4535139454388091,-0.17562743863006408,-0.2844549297611317,-0.2044448988920291
35,-0.08462598736492691,-0.08384386444758574,0.00035041286461683085,0.08044416468046851,-0.038009156472854175,-0.044025674139290365,0.5581359559496256,0.9755893158512251,0.5839081895575102,-0.09863753829110272,-0.255125671770041,-0.18807947623411586
36,-0.07483092373085572,-0.059943899715722025,0.02779250167844527,0.06562063067891327,-0.05007123216811213,-0.018235312018866114,0.707279671039645,0.840849685081549,0.6718197010201887,-0.009691723824364003,-0.2187426655628075,-0.1650852242106154
37,-0.0764393814729854,-0.037806964532911276,0.04200758012544567,0.05618027206924453,-0.061259723576311154,0.001354318334760813,0.8559196182014457,0.5480052774990996,0.6523524612944738,0.06690384273075758,-0.17373445559147843,-0.1398992589945217
38,-0.06682901577323226,-0.00447108728117163,0.06952910812592387,0.037752938649003795,-0.07336519869919808,0.02962537313605076,0.8912494925162606,0.16523608454728567,0.5770875201030776,0.1388613893446915,-0.10991899097924523,-0.1040251628101243
39,-0.05364465881919836,0.03553123833792936,0.09307043016634439,0.01731698999351038,-0.07042203930395222,0.07142622236929233,0.7178919384943518,-0.2548670930523264,0.4855683600487799,0.23229520528884726,-0.0354808799404307,-0.04630594678476346
40,-0.016886737434640677,0.10822272943206365,0.1339437806795929,-0.041408204458961144,-0.07535469794115551,0.11984253288389886,0.3983109962378571,-0.6586950548839752,0.347792274306019,0.35598002016170416,0.08040737943928039,0.035231224420523385
41,0.011251528586394426,0.21140770883480411,0.19599950815351558,-0.11302703772419367,-0.0940113576215332,0.20160621552799007,0.09719941463732831,-1.0865894393386215,0.1323512524197904,0.46065835099480595,0.21501746980270914,0.13306050499321664
42,0.003931698073674458,0.3328740410377802,0.32172426440237933,-0.16843468219392288,-0.16189410044249625,0.3242018246552182,-0.03917321476580979,-1.5731315497221765,-0.16007642048353637,0.5288512233452531,0.3369667519739276,0.23716002961234986
43,-0.02079552951707865,0.4368051987987251,0.4394059453447119,-0.20536420115942058,-0.23132344450524672,0.4415369893929224,-0.1480414391566366,-2.0941938337804054,-0.4726108291452077,0.5897274695166855,0.45510820607441027,0.337849809498631
44,-0.022538220869101146,0.5096444525290897,0.5391769360426202,-0.24617637307750156,-0.2886152696952846,0.5238696592397244,-0.3336716128943177,-2.5070343356751623,-0.7466160371465799,0.6660083224529569,0.5718318252835969,0.42608552544970796
45,-0.010879307547264168,0.5532708200029353,0.5661396642903906,-0.276753364875348,-0.2881087893398246,0.5643330025574006,-0.5845104536300392,-2.7572386839373264,-0.939697154206397,0.7822812591542043,0.6690075390932306,0.49572462742583356
46,-0.005205971392948875,0.5877124680723897,0.5893744340740614,-0.29425964351689443,-0.29473522677513814,0.5884866967305953,-0.8895989856561881,-2.9592107849546085,-1.1519156167506162,0.8768539679256666,0.7656610868932989,0.5487274595622582
47,0.031082113817588925,0.597480101800516,0.5786141977833548,-0.3195574303352992,-0.2822012580224502,0.5900168634188903,-1.2705049486792652,-3.1092193267837764,-1.3271358861047668,0.9785316999342661,0.8698324858682122,0.600275411671763
48,0.08889051813370358,0.6021300606347945,0.5282349869881977,-0.34974906479684814,-0.22386645097357,0.5628678735532444,-1.7670389703381315,-3.116870506794166,-1.3991769078265492,1.1652281105031652,1.0268107867970302,0.6669619450009545
49,0.12907904205441972,0.5972394490040298,0.4773735798990716,-0.36782389270473714,-0.17594246548502646,0.5330208779036517,-2.221072092610055,-3.0037627261641617,-1.3900008463622457,1.3851870431143856,1.1999435362749162,0.7406607807502994
50,0.1812269728316254,0.5834728640020326,0.40674909155238914,-0.3810379122164989,-0.11920811158311934,0.4855908668042585,-2.5201992766031562,-2.9013211037726716,-1.38667793174028,1.4820701033242467,1.3439535666065132,0.8165678911720198
51,0.24239162227093153,0.5359861409643494,0.30537747166188434,-0.3849734510506671,-0.032954441223772446,0.4188721488326713,-2.6987143155624,-2.7569050713914436,-1.3858412592869231,1.5342286099545168,1.4605420711592545,0.8931958068246852
52,0.29474053705512293,0.45454363978610535,0.166778234062619,-0.3740295504306073,0.06501509101863069,0.30787089592665706,-2.7732391319045444,-2.5590836780056594,-1.3347530407855872,1.6231665200381293,1.5885668502522239,0.9697237989781341
53,0.3494322517171809,0.35847281914578744,0.013075237420892168,-0.35356952600061464,0.169536777071847,0.1846352392896768,-2.7517086691072192,-2.3729230776700545,-1.2747384585066348,1.6945865365590853,1.6709126942841208,1.019080152504848
54,0.35938634602455344,0.25706348156059544,-0.10302291830830133,-0.3099711907944511,0.22994997022946817,0.08122837734827877,-2.644569836300558,-2.2257213204684434,-1.2545690684625808,1.6349206414349424,1.6599754778393285,1.0134548131225116
55,0.3547889464266795,0.140430061890744,-0.19887204338847903,-0.25125473823006905,0.27337120898361045,-0.027083139073439347,-2.466577279085092,-2.068281925711581,-1.2358439857027013,1.369919312956383,1.530304163133681,0.9287354064181361
56,0.34422122779072584,0.03019531757935794,-0.28182418637948226,-0.19076925031164832,0.30771850245786075,-0.12853249748128645,-2.199874660372071,-1.864230053032787,-1.1657356338118943,1.1676254285296652,1.3599035472711578,0.8256592215566472
57,0.3299721285345691,-0.022516709213329673,-0.33543893537764413,-0.15738280585835096,0.3265956922565735,-0.18946796330439664,-1.9361992011824918,-1.6484654621834776,-1.0093843489090473,1.102026123423876,1.262189731077488,0.7569848760080979
58,0.31272044966542045,-0.04657960142098385,-0.35483030016123757,-0.13720206742055896,0.3306869403219664,-0.20827844999563416,-1.6992222717962693,-1.40707254495643,-0.8150623089800255,1.077378997545106,1.1605471288422025,0.701902795014257
59,0.2913259451674377,-0.05101180642897922,-0.3357247073059763,-0.11844875046544037,0.31462281352782034,-0.19565272292640276,-1.4608576203355508,-1.1560018870249045,-0.6235700883703441,1.0131341302535173,1.0330014160483851,0.6399118611110151
60,0.26248193287275845,-0.04384715290171139,-0.2986622039666779,-0.10250178967073895,0.28460841613665844,-0.16591150024228263,-1.212890898780223,-0.9177737745274337,-0.4712931778044294,0.9301413761280939,0.9104909491546214,0.5791443679646282
61,0.2180629447929217,-0.03334561472798613,-0.24949968008581525,-0.0813578013964635,0.23929362155609615,-0.13914066050588186,-0.981550513845779,-0.7128698233208468,-0.357707264347174,0.8344539618553333,0.7880660430066608,0.5150574172520545
62,0.16510475837350858,-0.03065919099036811,-0.19411457684169653,-0.05543294059116909,0.18400309666658465,-0.11135954916274389,-0.7866431498799626,-0.5376886548163398,-0.2713694313920991,0.7078947558167505,0.6437216470754199,0.43411187838587945
63,0.11208173553913596,-0.036637555170229416,-0.1466344061322239,-0.03286133477124423,0.13371441799498765,-0.08942663820705037,-0.6352368821933266,-0.41704370861841605,-0.21030402437510892,0.5843694271462083,0.5061898937681499,0.3419129838571109
64,0.08185554979242511,-0.044890738657157564,-0.12236256464626108,-0.015336581848646037,0.10267145390590862,-0.08503418117122427,-0.5184137551886472,-0.32420222825536305,-0.16285739717345402,0.5063603184001284,0.41442591218322844,0.26937953518361163
65,0.05712910468548663,-0.05703728675895342,-0.12510555305600232,-0.0016291453327412827,0.09386142506033548,-0.09360819786237863,-0.4247269135451997,-0.23777872593893334,-0.1037788008208702,0.46808517105652103,0.36545991298134306,0.23897090014389122
66,0.059477807954993335,-0.06579949003145301,-0.1309575041418819,0.011107272614890092,0.09562470013726776,-0.10183094114030916,-0.3406324776860618,-0.158076815801802,-0.0466414578681487,0.41974749185040394,0.33599489046547626,0.22635288995259648
67,0.06258463147837451,-0.0656864315566624,-0.11972383927697827,0.004840591747119984,0.10410523713636949,-0.099670043373113,-0.2700762527923949,-0.09173818512528929,-0.005774941660559705,0.3481780792382337,0.3104652527273371,0.21834731512849143
68,0.06870487666151903,-0.05990129148226253,-0.12806286526234814,0.0006880259718433836,0.1055417557536422,-0.09255929848480382,-0.2125444995937243,-0.0415521841826622,0.016242371892366648,0.2965606417430178,0.2797354568919566,0.2064608256399732
69,0.06194445493430506,-0.06421981510726324,-0.11870746440905247,0.0023833417991577953,0.09556667686282333,-0.09102927520505255,-0.16767665225280917,-0.002364524526251032,0.043324868089900506,0.26617999949180715,0.24332311430553194,0.18861003201768378
70,0.04628032593907113,-0.06241294233065525,-0.1107163471724415,0.009442165591495338,0.08170965971836192,-0.08604059932112892,-0.13119978146078998,0.03236511759642145,0.06715022544169039,0.2680782106567099,0.20500012810808393,0.16846012911305214
71,0.04215377767041202,-0.04617434253484083,-0.08337683140425477,0.0026610350968017255,0.06421565633674109,-0.06681970105937543,-0.09661947131995793,0.0473089703613635,0.06371775630082399,0.2347206540870809,0.16571777158634815,0.14937758151170058
72,0.03331143512632409,-0.029642151814910034,-0.060891157239182765,-0.0031660832841650744,0.04731312593118232,-0.044592756694854546,-0.07458538496310554,0.04072320554867813,0.04553133785001094,0.15458563112999932,0.12570507099735256,0.13274643713266393
73,0.025749862123814336,-0.01252021173361768,-0.037790320974629796,-0.006865330899407383,0.0388974682132074,-0.023942131124317846,-0.06731535023359864,0.033331052388678076,0.023398166687152777,0.08441485806586871,0.09181618106422995,0.12161317501429957
74,0.031080212990108207,0.0064044893691892705,-0.012234603401929608,-0.017903188918701282,0.028037319508701863,-0.005362086473852142,-0.0661637743989594,0.0351549184043253,0.02190931384477815,0.05850620360718751,0.07214191988362746,0.11491333319022838
75,0.03368378758954283,0.024746666415488124,0.0016945174133698605,-0.03384547509283672,0.007318180305988074,0.009139175161185089,-0.07191425297367285,0.03781215954468321,0.03115118769125793,0.04380720943849079,0.06654385334073473,0.11706577138056973
76,0.029464047301937562,0.03449088194135244,0.0016434871859806067,-0.03331600848727623,0.005226711321873237,0.015742679927874287,-0.07960347102957184,0.045611081355223404,0.04076645880249312,0.03702524913600407,0.06781396621035385,0.11871141402446159
77,0.02575223994532825,0.0331768666028844,0.007225419843122133,-0.03101265267599307,-0.0008090061659817919,0.01787733589192598,-0.0752568730405983,0.05991624258249888,0.04655620144480803,0.03611376521809966,0.07123536510213618,0.11318211692030045
78,0.01131571510560186,0.02978098276202478,0.026032022109915634,-0.018709960630028,-0.015629221459908367,0.025583433003991254,-0.05918755044059536,0.07338207618298014,0.05344878368775167,0.035112227643224955,0.07871440596239804,0.10737320156653929
79,-0.011220365622042818,0.023194858202604023,0.03605856995636146,-0.0031547762986062974,-0.027995482095075852,0.030658262196303188,-0.03962136834848338,0.07679571296302638,0.054719259205078086,0.037448426514468336,0.08238948710670455,0.10124564395563038
80,-0.022227837661634983,0.013752911850876081,0.04009966171388005,0.0042763729624775825,-0.030130814400566627,0.02496909362819611,-0.026368375535790304,0.08029187662420592,0.05493640703299129,0.036000187618901155,0.07156568162877275,0.08458201869959456
81,-0.028235378153017684,0.005569158708655828,0.034488849326709814,0.009185887998350283,-0.02311428055319882,0.017160554626001433,-0.020466437816585466,0.08309715392001216,0.05076896323559657,0.021852071246809636,0.04570184547748195,0.06687359929441256
82,-0.026134963692844546,-0.0024855584459568866,0.01973596501941356,0.020061720530651132,-0.012142213196903826,0.0033192974359719596,-0.01755472794519521,0.08316680971138879,0.047740618893429974,0.007306045339960265,0.02259916567283706,0.051394840184930166
83,-0.02184387553822606,-0.012167484199578044,0.0058602619300328175,0.021565769503578223,-0.00811560721295399,-0.006208592430473534,-0.01638383529510028,0.08619331645243884,0.04553294750321006,-0.0021438736154490955,0.010027744709414513,0.04085476866275098
84,-0.015129054742522772,-0.021188101997529657,-0.00383906873858173,0.01970656312059718,-0.004089769625623926,-0.012978241881995293,-0.018232328244093415,0.0890267229994805,0.04387190580485585,-0.008702094899447125,0.002640629223142163,0.031646836370026674
85,-0.011477046374605337,-0.03286393590245828,-0.017973349609105457,0.021800504162493455,0.00041472551836881056,-0.02853448884476564,-0.016193399330913492,0.09436621518125056,0.045308843587468665,-0.012474966913912373,-0.004706259400995363,0.02025598858638345
86,-0.016771443288787238,-0.04320260856562049,-0.02738010597832259,0.02954888628232201,-0.0006651080978502055,-0.040886544895648566,-0.014469210411745582,0.10687475347191722,0.04876423194492287,-0.013706995879077484,-0.011586081573585691,0.008399521630308208
87,-0.022442284613954082,-0.04775033974615267,-0.02765174803436875,0.033434302554746324,0.004486621274696059,-0.04561645757677564,-0.013647715245490213,0.11926477332405266,0.053394520550567925,-0.010211280425585736,-0.014530670607283438,0.00039070397129937345
88,-0.01951718030281869,-0.047959899613903456,-0.027115239715357436,0.03318576862401114,0.008984939966138562,-0.04495002687702701,-0.008118797688870073,0.12071778947655197,0.05632495936649992,-0.0076269596000529336,-0.013517402739821001,-0.00031658038830887497
89,-0.011297646761948405,-0.04711211258753518,-0.02765217593387043,0.03261604408706195,0.011228095212571735,-0.04367246229024303,-0.0038440497608436194,0.11792289622792326,0.056428979844837385,-0.005791550857203086,-0.011680863249034203,-0.00042595362527292346
90,-0.013780503163883098,-0.04517209117594725,-0.026408246066529348,0.03372278225666543,0.008337583581936491,-0.04138362806442798,-0.0013670138969207254,0.11631156790706029,0.05767951598295038,-0.003981296801762867,-0.00992889272236782,-0.0005058882802793929
91,-0.019395812854149187,-0.03969608486647174,-0.021063478976280373,0.0337856787742273,0.0015080011131353875,-0.0349574125114286,-0.0004078906581940281,0.11539546979934591,0.06023780156569275,-0.0019604766261601438,-0.007856429217684719,0.0035717315159362814
92,-0.022399005940458773,-0.031167840012059543,-0.015745017564077063,0.030084775612779408,-0.003632591844173433,-0.026244997407495155,-0.0022948937183511556,0.11143960520079839,0.06141183865168191,-0.0022858348949891596,-0.006855067629622329,0.013053791049369746
93,-0.022110953183419532,-0.02283437729528764,-0.006393915040844432,0.024972617839839492,-0.006290271077192211,-0.01740542368997591,-0.005070364292202211,0.10950764412472173,0.061511014938408895,-0.004700969175671456,-0.006787795001201458,0.020759533589171226
94,-0.014581824727403398,-0.018295716267676156,-0.002376944663625896,0.02070647543769038,-0.007449485988042169,-0.012654500528312875,-0.003935457307573772,0.11060330584137834,0.05910357821081125,-0.005163940804304344,-0.004995355173688539,0.02252496190692618
95,-0.00432133237715414,-0.018217359420454503,-0.006968416467509475,0.015633834715332348,-0.003504145264813265,-0.014586814724923527,0.0007118054592869308,0.11305462982078579,0.05706630346554729,-0.0030843107792856324,-0.0014448912774250797,0.019556009853937743
96,0.0052314837957596755,-0.019838166409019743,-0.016002899931044545,0.013622162883089373,0.0011816711587096995,-0.02067741868895025,0.0024879053694813677,0.11286945553985678,0.05661340487715291,0.00026657421210381227,-0.0014912199663335464,0.013211111255539636
97,0.007341661212740343,-0.022536106813927075,-0.022434317994607073,0.01591899210818527,0.00827980987832771,-0.02659210307913809,-0.0013392053822877358,0.11222957033512665,0.056740852560886096,0.00023778421897184196,-0.006417530290435517,0.006562986138564493
98,0.0029155205814793937,-0.02744352954049325,-0.02426827404833646,0.020964061734704973,0.008373191761145276,-0.030364616028549063,-0.006472207939297522,0.11088353280918353,0.055690652526550824,-0.0009698272448262768,-0.009038484071113469,0.0023553006213793276
99,-0.004038947700911196,-0.03348939578474112,-0.023386736670537117,0.02630099894261355,0.0069375792916686494,-0.03195424154906118,-0.008801654978375106,0.11073273305333763,0.05529584507925541,-0.0018070358409661182,-0.007514568060573025,0.0008736954702064717
100,-0.014102544609705522,-0.037801914201497665,-0.018517398086166675,0.030534616971227356,0.007081264716101376,-0.030780052439163492,-0.008307897115324387,0.11444334276088149,0.05566936866901523,-0.0001584152423932013,-0.005652325654924021,0.0027314388676370482
101,-0.02139652790588815,-0.0382787999601645,-0.008880772311153928,0.034655714684607875,0.001157728441276977,-0.026194417270506597,-0.006575893272894515,0.11841110645818162,0.06162185929019703,0.004682969386437457,-0.003941416446181581,0.00831323016495076
102,-0.02783397418891026,-0.03479477865747387,-0.0010042042493928465,0.034360509417471166,-0.008877957956669026,-0.021896382894223056,-0.005033911756734809,0.12011778825031998,0.06835942336670982,0.0076619584091648756,-0.0008651484053717462,0.013961552181220794
103,-0.020884085229525912,-0.02950382054743335,-0.0058783577463527165,0.028827461354682407,-0.006963153042040874,-0.017723120171362048,-0.004038891914768271,0.11957590849241687,0.07168511594558588,0.007622960773258511,0.0011901488091198217,0.015267182246150098
104,-0.018231044430518914,-0.0251146395244699,-0.0070506804526052095,0.026292514284846077,-0.004696395595905617,-0.013247780686433118,-0.002736898342847585,0.11960026431664685,0.07287427388328101,0.007573343935033991,-0.0006539257849407856,0.012527468810271173
105,-0.023297162464603186,-0.02307666276357664,-0.0031641448470257185,0.028073668988871602,-0.005065849316923412,-0.011860909317296947,-0.0014172359683326252,0.12116033848161209,0.07552033833325131,0.010039115610179665,-0.003490345053458334,0.00808880831612354
106,-0.030067914709031,-0.023270703809116635,0.003782078000482845,0.030747829959468585,-0.009823233323950202,-0.0127997348987311,-0.001934247373458771,0.12241674311612011,0.07638698405360854,0.013288514478184632,-0.002050732238555543,0.0029453915062237074
107,-0.02258919087933111,-0.023371596227851323,-0.004397965097825012,0.024655853305563056,-0.008363844447628414,-0.014930928432531566,-0.004464598184285552,0.12146714202669923,0.07163611406609878,0.01579793564190591,0.002926221773464216,-0.0018980036821618917
108,-0.016584041671486104,-0.023355943131046008,-0.012463944961438175,0.016942497724383117,-0.005367783414566477,-0.019598119395192307,-0.006098157045675796,0.12229990577584679,0.06871152945555747,0.016912327457508095,0.006152464601241612,-0.0013862340529316175
109,-0.010906767095668969,-0.023413443849082904,-0.017960602118609177,0.013759371599065928,0.0016645706121988174,-0.023234461945998625,-0.0033399608093612823,0.12405453411965228,0.06808485215079058,0.016632073838830096,0.006156025711890535,0.0054654682390784595
110,-0.008642492336592858,-0.023499692288045198,-0.017536922604083457,0.015505688587018895,0.0048348618744555,-0.020723098654045456,0.002989356396257893,0.12726933790464956,0.07310871349375948,0.016352455632913356,0.005526392435021045,0.013027017523196106
111,-0.01188637923181142,-0.02323506793112777,-0.00784887148426702,0.018134746460778093,0.00255160392601712,-0.017697104244910156,0.007789629500229885,0.13192602763176497,0.08180273919525208,0.017824647782158705,0.005538901185434295,0.016058992983858815
112,-0.007877037980809222,-0.022937726709821457,-0.003381839687587795,0.01779950699845856,0.0033910586625913574,-0.015483766186552103,0.007575335450853336,0.1336518195870323,0.0879630667597513,0.019870782901389654,0.00925559867362816,0.016565741555986894
113,-0.0032822988685156772,-0.02438535969847948,-0.009688318810108629,0.015841391623148685,0.004085062559968252,-0.015183138103423768,0.004698895543884342,0.13515147630747784,0.0903172389389583,0.02129052540500676,0.010730210303198684,0.01865458930327362
114,-0.00495252830008956,-0.02841856868076327,-0.010417126316901787,0.02092859565659662,0.000993826096631891,-0.01804148423259743,0.0034181921643426927,0.13706354999134418,0.09018024367920535,0.020459277977834762,0.009922058357597133,0.0220629531911647
115,-0.01588164118121442,-0.03250972352687998,-0.006430600937922908,0.027081361406942596,-0.005294896705296863,-0.02325932143267736,0.0035380704571804297,0.1361245537410748,0.0899257784093877,0.017739201310492413,0.007024136550941817,0.023182831221435964
116,-0.021453708547561918,-0.03343360452921687,-0.009458015835810435,0.026535410712795394,-0.008205780827287693,-0.02665788674574751,0.0018772272213441396,0.13565121566418645,0.08787151438231354,0.018767543704431445,0.008035285049956348,0.019959768778550113
117,-0.01766256568327307,-0.031096901677220228,-0.013641207223390926,0.019187569767295503,-0.00018460233241764405,-0.027637233050750065,-0.0005425435783553978,0.13807123533645185,0.0864912938799931,0.021274382499125007,0.008038462930537702,0.01591380448715527
118,-0.014670902765882364,-0.028001392505171023,-0.01811340900316884,0.01486951811940694,0.007721373520474034,-0.027053020286100928,0.0008172480971637211,0.13978517023768053,0.088964037273331,0.023238162653397225,0.009261659108462252,0.016573594034458003
119,-0.01118423900190262,-0.02494421953508546,-0.01769629951149452,0.015376159596788286,0.009596480681277933,-0.023644242511137416,0.0057258267806341995,0.14016800061211063,0.09068493038716352,0.02574198532982608,0.011704883404218176,0.021191448013183563
120,-0.004711167433895012,-0.022899444029089996,-0.019603466509862333,0.015072902673767721,0.008532653112606342,-0.02357543825732357,0.009339229354860548,0.13915388267127193,0.09232107987418524,0.02657954377780871,0.012943025079099807,0.024108155818184002
121,-0.004658512484015051,-0.023388903350810064,-0.023808821066860976,0.013877925586016047,0.008461547217919741,-0.025930064130112816,0.009368286165778408,0.1388651795622057,0.0915640950362704,0.025697064380914986,0.012961181061402439,0.02382020675845374
122,-0.007658532691453652,-0.026136999235427418,-0.023092951967009518,0.01843744618667462,0.007372810424218934,-0.027903523360998852,0.006823684226503979,0.14104196277463535,0.09046684517088041,0.027461818819271,0.014029565503570223,0.024203297746557034
123,-0.012750654054721781,-0.029059710994484164,-0.02258137702902511,0.02329195303136717,0.007916810850550285,-0.028277083934044094,0.0044144966222580614,0.14485896362417547,0.09587167242549423,0.03229716908053548,0.01632391011894541,0.02828829132597305
124,-0.013933767467352353,-0.02848517551119894,-0.02005103677122497,0.025153823496349943,0.00465176042576166,-0.026592089129059377,0.005502413669141809,0.15074803412622256,0.09958915885381366,0.03784778985346879,0.018358535451010138,0.03456490432955238
125,-0.01261423515266562,-0.02589096140026491,-0.019789519918493304,0.023363708114641668,0.0031137549869008872,-0.02516422364722651,0.007967547763461168,0.15695614864517454,0.10175748110836108,0.03955738048819579,0.01912073616475437,0.03735063176578579
126,-0.008956261575334832,-0.027053255618797623,-0.022736959747117397,0.0193722426626569,0.0069469796602210955,-0.028568705391461332,0.005067843093198819,0.156609418865052,0.10474730759758866,0.038336344520813206,0.01631584251391797,0.03207707758376856
127,-0.006914266931100898,-0.03191604277693684,-0.025494875839050392,0.015580670751724975,0.015021518453397376,-0.03568798459781457,-0.002150354760903403,0.15122477698298087,0.10562835944289442,0.03567391090246257,0.010310148620517979,0.02246691533415442
128,-0.003984506287094352,-0.03402775554704561,-0.02891565938067608,0.013505083166289062,0.017840280432448386,-0.03957727945521233,-0.005382222275763567,0.14795528783878623,0.10516616717267406,0.03347557934590651,0.005162763585802338,0.01661286951515155
129,0.00038379603372297715,-0.03261107221032629,-0.030585182144174137,0.012487301725455563,0.016835539880196114,-0.039057369721785834,-0.003326635008400823,0.1490516636342282,0.10749932908604982,0.03378744183852868,0.005852111522118442,0.01624660713631192
130,-0.000388465113580933,-0.02983650394932523,-0.03278222442588473,0.01076023838922551,0.01452479185880565,-0.03610816116106649,-0.000957110347213859,0.15299346830004265,0.11109286672355335,0.0362553391207556,0.012274523813088604,0.01814589295170814
131,-0.00014371797508175733,-0.028073725625866026,-0.03204682408607503,0.009066726024463402,0.015083878647634642,-0.034903833852686396,0.0011773266202378882,0.16008789973693244,0.11376292854215347,0.03921341573203181,0.01898882368219572,0.021130817123873425
132,-0.0004128345153320001,-0.02825952477607448,-0.026977114310876443,0.009449669723244352,0.011726866645265219,-0.034826739364598465,0.003459112722163926,0.16261177802861995,0.11446174154411345,0.041509741148272966,0.021736325327733598,0.02508857139536817
133,-0.0015133628225787203,-0.030140263037265386,-0.02227798158984912,0.01137800760746231,0.0034409070022345493,-0.035656591931969545,0.002648208590493757,0.163353356726339,0.11699685049363187,0.04347493590288734,0.019585962806892822,0.030605529046054732
134,-0.0006461703216283626,-0.032028766327272196,-0.01842056563521858,0.012124091877671238,-0.0008397259533068735,-0.03578085813441938,-0.0018147880373555539,0.1637606531855761,0.1214125343567355,0.0433752071495425,0.015290465129411606,0.039454426286097216
135,-0.003309101058950205,-0.03160853964028255,-0.022352256130313324,0.010532302077318518,0.005698450530495428,-0.03320294799890529,-0.005074532682893207,0.1664855754702911,0.12377484732802893,0.04292387053479962,0.013517109619073191,0.048956777613630445
136,-0.003673515849045378,-0.028782369600404478,-0.028652651844710393,0.008829258799283611,0.00564605416333619,-0.03161977860976854,-0.0039609484279939725,0.17212355228789433,0.12320540650213735,0.043283553073078934,0.014209266996178083,0.052155193836221
137,-0.005140998932690415,-0.02594416424427822,-0.029156801653893342,0.009481362201846191,0.003053243390811244,-0.03199870173415479,-0.003602462060172021,0.17747627858902454,0.12404261111135642,0.04573163696898695,0.012934314779307322,0.04719885869559244
138,-0.0053554641607937575,-0.024967132262807022,-0.02714974026813095,0.009944436393303885,0.0064382992784161285,-0.031112530143118048,-0.0060512843892808685,0.17755330747845494,0.12830016141139586,0.05081265389961874,0.010389847139195198,0.04049472242113691
139,-0.0027570508841501867,-0.025054054554694484,-0.014426325002517107,0.010875862155054192,0.008814073790920807,-0.02823266088354146,-0.006443567875759296,0.17654651831021456,0.1322482578948842,0.05699594901278282,0.011847841629653362,0.03898090581721651
140,-0.006299498151928366,-0.024217783758956182,-0.010832184675106606,0.014991124547418704,0.014280896669889423,-0.02518401369983151,-0.002312114407338535,0.18167142509550757,0.13724855633893085,0.06061079342682907,0.01920789308682335,0.04216035966221016
141,-0.00402838996204366,-0.023018705936509613,-0.01099816441283885,0.016078382966368845,0.016603609386235618,-0.0230442694050804,0.002151560420076651,0.18715392275472814,0.14350126183772416,0.06580509381972327,0.02382407577772707,0.04548059069694546
142,-0.0038430486323334546,-0.023965256899106085,-0.013713285897509291,0.017865533473307008,0.016599928179593174,-0.022016095310280957,0.004448043022014181,0.19105840122763748,0.14894459318436049,0.07063439046156622,0.0245640382534097,0.048646191909221495
143,-0.004544149997160381,-0.02629221062116907,-0.01756212674289804,0.018288941367754174,0.01756608727972544,-0.020771375903229958,0.006206216157808482,0.1922778756739715,0.15205177471709583,0.07065429873078799,0.025161153226348824,0.052857063894531695
144,-0.006413530093374625,-0.026570611472314244,-0.01736622641797664,0.01684565613642966,0.015049950644236443,-0.01761385580663169,0.009365184196860811,0.19391795884851698,0.15437008306690797,0.06991327718185128,0.026685665480201265,0.055659072109930596
145,-0.012013362198697442,-0.024715071485577625,-0.00561651061226035,0.021173877149067814,0.0017415260773583825,-0.01405811518273801,0.013470626210268212,0.19898480741428926,0.15823920467296665,0.07364511004120358,0.026581533545534844,0.05579416242748031
146,-0.020139542507679627,-0.02351868969626721,-0.0015717036700343768,0.024001146852708377,-0.005168645575269952,-0.011321298834472549,0.014899797836346325,0.20388565608270307,0.16333870903954384,0.0777447922344097,0.02624032719910839,0.05553545068882817
147,-0.011521207398720333,-0.02378751779504953,-0.005303645882789968,0.020142057595099853,0.001295663252128806,-0.015918005425132394,0.012097654537801365,0.20414727591571447,0.16672617650815802,0.07558712099663097,0.026267272630152126,0.05543432550093021
148,0.0022909049804178613,-0.024170062392005295,-0.014097062648443539,0.013954971752148606,0.004831539880645594,-0.023176561667550395,0.00878748735403874,0.2025130819149847,0.167303186997189,0.07449076314618452,0.026609339983237952,0.053967313168732774
149,0.007602772017097427,-0.023413929636666626,-0.023788193945002225,0.010069906817400187,0.012190146964229362,-0.026030236446596328,0.008454477219649044,0.2038021156773744,0.16998863198917646,0.07597277080794235,0.026607068438987518,0.05199867669050551
150,0.002507376888619352,-0.02142508077557264,-0.016184531263929026,0.008788862432212326,0.0076182578886029246,-0.023285092977174595,0.010544179529392066,0.2075120313008454,0.1740705712779928,0.07875844735465837,0.025200692390517237,0.051203026954677565
151,-0.0044692819751646394,-0.019511441556098633,-0.009109212097514922,0.009739025409843604,0.001687159536011851,-0.01993619784347686,0.012797411425402007,0.2090154781148706,0.1768260779798856,0.07929292931401204,0.02658448534816387,0.050063258697205903
152,-0.006053848011371729,-0.018816865745743535,-0.009207892029420437,0.009393105328456186,0.002960189274758356,-0.019139076063472246,0.014151773046996531,0.211441183783753,0.18033828743426528,0.07854245672361103,0.02822248946893525,0.04769544187939171
153,-0.00045760790698339167,-0.018787002766507237,-0.012259873907530115,0.00831025782218408,0.007843166072373975,-0.018843222253135318,0.015622184069684526,0.21880544047296444,0.18593872370962672,0.07813569892774003,0.02810912760329478,0.04757485922175374
154,0.002432942239199316,-0.018753726552045463,-0.016101239618106,0.009085309924723659,0.013287107828349739,-0.017053839726141003,0.017853388480571303,0.22813450023428808,0.19187449954475336,0.08131028817719799,0.02638737329635695,0.05159931672863067
155,0.0007440433889619917,-0.019595655476129258,-0.012063316929480244,0.01093187906654764,0.014464318880888713,-0.015151734919258466,0.01933069977103525,0.23327908130007682,0.19693855202391783,0.08675301264017296,0.02634999931124217,0.055857517099274084
156,-0.0049917532300174355,-0.021692104929535286,-0.011804635630694678,0.01313228294919149,0.005464207178098876,-0.015219366751020046,0.019184882671728305,0.23357187937341348,0.20264960007438415,0.09294776455448155,0.026844401774180113,0.056287020546379275
157,-0.0056080369029902315,-0.022944875157718602,-0.011435858804204807,0.014505016306595876,0.00519819938324521,-0.0162206709878062,0.01891044033619392,0.23407666725882537,0.21186414012695454,0.09538745185825843,0.028656854259914707,0.05326087392581142
158,-0.008615283620152726,-0.02155404836120338,-0.009720753811230774,0.012171370018350216,0.005727754069753822,-0.016823644403436026,0.019966869819840194,0.23828378686394666,0.21974030547966394,0.09450546226971077,0.028960792028766287,0.049373893239574175
159,-0.0027035574297285,-0.019279773633641414,-0.017555394540622927,0.004125665145319901,0.01596656517785391,-0.02180351230652185,0.02247661979621443,0.24206515979465673,0.22308528977167158,0.09320737122185943,0.027116580752044643,0.04697654778407172
160,0.00391250181923854,-0.019251136648494743,-0.01832360903006415,-0.0014484080562281228,0.015985143647434755,-0.02305040321670323,0.02307944663108371,0.24880708149184425,0.22169456644913893,0.09359041578166062,0.025838221568850215,0.04617293807909425
161,0.008020333415445832,-0.021552345710680095,-0.02166143214426928,-0.0022790963111172045,0.014143357376905901,-0.025605462130572937,0.025477214038079087,0.2545680165438563,0.22082878823282648,0.09280991191658772,0.025739300555635176,0.04337877943937326
162,0.0066443927376975105,-0.0230949177145675,-0.02386123013322846,-0.00024220703467257854,0.014315886504321286,-0.027893334490341058,0.026083945775092744,0.2570770232959978,0.22652147780318624,0.09159273537842211,0.02466816552346872,0.03659797500161992
163,0.007960392120968525,-0.02170459478943518,-0.023964883736170665,0.0005853078760873296,0.009973295078323584,-0.028058732030564186,0.021443517558562282,0.2599664995651667,0.2376538188898581,0.09186367137220877,0.022207848586291105,0.031148048748543555
164,0.00814139982955073,-0.018852508313274587,-0.02262350543129047,-0.0006925622185766922,0.00992046709469429,-0.026294388171584374,0.01946232578813758,0.26635984671682406,0.24640410293470574,0.09424383166270558,0.021429839961096302,0.033140884106680896
165,0.010114423755928338,-0.017437240853892873,-0.015614978101412642,-0.0012239501858842747,0.011800514621503853,-0.02380828022635728,0.023377754579163093,0.27543431896714615,0.2514624239501031,0.09762534061485773,0.02172214398241509,0.03902039739415928
166,0.011663948213721083,-0.01808256925870711,-0.014524755098327125,-0.0002437092613803548,0.01432090889034223,-0.022094357972893126,0.029570305607798872,0.28361892659002935,0.2553157572190905,0.09922332776935568,0.022529287283323804,0.03932751807203862
167,0.008274741285905277,-0.014491915131612496,-0.02381872817095129,-0.0004064750842149708,0.018508269759104357,-0.023398143630208704,0.03355109808828465,0.28680858503073203,0.25929192689766345,0.10017129051568852,0.021352494431404176,0.032290317924007286
168,0.011697445516066126,-0.013099909072232643,-0.024439367053080016,-0.0020377625332353103,0.019438836771823075,-0.02477299107526252,0.03375581726426155,0.2859982337643022,0.26455274234086784,0.10199444186859387,0.018115266337359482,0.026239366407590663
169,0.011969718301396431,-0.01340642479846435,-0.0154171647038431,0.00029273001250104767,0.017742671250460158,-0.01874310476517685,0.03318999138111128,0.29065786583305286,0.2712331787470579,0.10295314547939585,0.016442371742035944,0.027719005937340085
170,-0.0005667576957304656,-0.013158158139491359,-0.0010991441513127477,0.005110080851998973,0.005089567049912378,-0.011593739071056432,0.03725405552897988,0.30380272166116373,0.2831784298594562,0.10421549148737531,0.019912809530154355,0.03354078277070979
171,-0.011353406533156196,-0.011228799518533492,0.002683376626032288,0.007941317857670577,-0.009504401383328833,-0.00794453445342932,0.046168545779609944,0.3184891321058527,0.29837469646256726,0.10787707045440861,0.025000565804523006,0.03669454275699985
172,-0.013128605481144555,-0.008041257993711609,0.0006945092861177088,0.009054268837543287,-0.00979303752726513,-0.007560910308772144,0.05057832381198795,0.33099968445416406,0.30892115974989165,0.11160347209943461,0.027105324133409672,0.03539952414938612
173,-0.01346740655586985,-0.005507591448725525,-0.002284218408456667,0.005333626157700824,-0.0073653916307979475,-0.006300919012509067,0.05184315663372659,0.33955752625692526,0.30979294697959514,0.11254517759475909,0.024499295090284062,0.0326106113750551
174,-0.005473809214080912,-0.004677786561520897,-0.009301963334545742,-0.0023212991890041923,0.0016525194666310078,-0.009830657490116348,0.05113104469313816,0.3415732189755848,0.30940066903215374,0.10979833704839906,0.016505161885424786,0.029693051219368848
175,0.005444057815621297,-0.00415643708087479,-0.014936112410110183,-0.003911057287531207,0.010234013172737757,-0.013700710217481654,0.04703110714366399,0.3395380018696885,0.31431524791985127,0.10628719345770656,0.010965738415407381,0.028489881631379773
176,0.005137807920721877,-0.005126082056225362,-0.010407220439959139,-0.00018453222283850747,0.01011234790846666,-0.010254168895801457,0.04674863546881481,0.3398697023130076,0.3227084195744818,0.10403992440333837,0.008586893902475197,0.02816328405508469
177,-0.006794323185863009,-0.005888077342828972,-0.005881425700216273,0.005908572617080277,0.00354858434544703,-0.005531083711640067,0.05039498941271127,0.3446965826511921,0.32906230980911133,0.10305005764169556,0.011722112183890385,0.029224944126061084
178,-0.010930782469086084,-0.004761560177850741,-0.007097993521728305,0.009250168448025106,-0.0010469665393596022,-0.005091803773748554,0.053479504195099475,0.35112250914940135,0.33500972082064007,0.10412438689648112,0.015315698856243572,0.02722079878659003
179,-0.0039477867082235996,-0.002061568555567642,-0.009218983710652327,0.0002076457502802366,0.001459533752597866,-0.010228818869214323,0.051455979497133576,0.3571973144858286,0.34109142607624593,0.09974264381463632,0.012837896053916874,0.02134656274270023
180,0.011781680028050412,0.0006186047523369237,-0.007335242794167569,-0.011374304231761155,0.01273164582043609,-0.009019648187061219,0.04625723812061311,0.36429865884375945,0.348869441462016,0.09740299373690048,0.008387752535382986,0.024017497735751275
181,0.011628684715015032,0.002446507835289047,0.0053852937174255,-0.01398632173883282,0.0018636739435133744,-0.0038367513772199005,0.04559265329118771,0.37274774465079713,0.3562803805402054,0.09799933520898338,0.005274355176015617,0.029245129881183836
182,0.0065249962684432086,0.003660987150371149,0.009663925921678652,-0.011128714188043863,-0.0008075367774335895,-0.0028310302507249946,0.048950548053898355,0.38447178710204183,0.3615679170543926,0.10079382136866583,0.00451339675875892,0.030153703780070287
183,0.008031962672964185,0.006175010291422859,0.005252052106908333,-0.007331808067383501,-0.001130446730319686,-0.0024553967821539496,0.04987818072117416,0.395302226326081,0.3640117784979099,0.10051417779958954,0.005036746725069242,0.024489447348905992
184,0.0056072271707166025,0.013610355643481679,-0.003834103359367033,-0.004793064590526888,0.008560434057339571,0.0008066263064700398,0.04862463804930849,0.40026392152939366,0.3682357741376459,0.09782430674346192,0.006280855169255764,0.017739467164791294
185,0.006249009065081211,0.019416994471067307,-0.0031106370633108456,-0.004935956858687241,0.00942426660857326,0.006626492096829964,0.04800797973604042,0.39972584993035537,0.3739181927507539,0.09414003618387884,0.00872297407951528,0.013506425514023576
186,0.004156380507008742,0.02056254622733207,-0.00045411285849746106,-0.004639744124430656,0.006771594384244216,0.007876482690203511,0.0478246450165386,0.40075017196085905,0.3819915169137647,0.0889944484548699,0.009218148148802148,0.012087577945270028
187,0.0004777882705143512,0.014423160935178224,0.0042766892858098066,-0.005111169200551317,0.003795947292175312,0.00680890143126303,0.0484014071250062,0.40221993710172255,0.3848482498402498,0.08213319265856468,0.009692065574366254,0.013904544947626177
188,0.003547796057111816,0.007823166185349157,0.007908898604335362,-0.010798955700340422,-0.004713633682455665,0.004215450763067442,0.04964108421965816,0.39950900218104124,0.3851820544681924,0.07685201630820716,0.007330846860063807,0.016631375688818874
189,0.01158564143287207,0.011222826727365527,0.008453742674999131,-0.01541446499408393,-0.0047269811027143335,0.00548266292585654,0.04976665039626177,0.3968955781737288,0.3870634870946533,0.06941508315640485,0.0005859197072302681,0.01779329663384929
190,0.012378458141207357,0.01661982593498776,0.014405808082527272,-0.01565835297089824,-0.0004674139968914451,0.010431196746221002,0.049772257919439206,0.3981076075795562,0.3900795811352037,0.06565096413189785,-0.005551984470691836,0.017136637765231607
191,0.010810345640489931,0.021526816941980803,0.021278874177957745,-0.01620840243631657,-0.004794956150332527,0.015102574167658023,0.05466825423958049,0.3980999864617071,0.39408946895963376,0.065728098291888,-0.010387645258080863,0.016830005626718065
192,0.012036742744318481,0.02405608317380451,0.020189403500453357,-0.018676192427969075,-0.003998644756458192,0.016428683523741064,0.05532762637455688,0.3968928887777252,0.39693958147541847,0.06334752138412053,-0.013791866444848321,0.016715770171562516
193,0.010233931403044077,0.024189415835624277,0.019376119374954412,-0.019524118464975097,-0.002652451646730778,0.017267715326936488,0.05536407364348478,0.3953906180073514,0.39571152565099993,0.055345796217996,-0.017911390703126466,0.013916075891142469
194,0.003440937812455762,0.02320227429042351,0.028756427401777813,-0.016081915565757204,-0.008519524553488101,0.020925061925701274,0.05539995457636474,0.3935405287237961,0.3939871270379206,0.047208650736035744,-0.021515541375615926,0.009061613547787298
195,-0.004362365545243221,0.023260105038868533,0.03600833654788455,-0.01078335367262553,-0.02107443874839127,0.02523466694017055,0.05537088596168142,0.39232646444114083,0.3919761883263989,0.04539176640392187,-0.020227095157815546,0.006395716952445004
196,-0.007550176973196069,0.022252771873872916,0.04024735199444465,-0.008134643123489832,-0.024230076123019785,0.02770785881040301,0.05540579688102216,0.3921630531806839,0.3890921833684932,0.04352285314203742,-0.017053700837592112,0.006392373557998186
197,-0.0027703837202111897,0.020052287353514685,0.03732220917080689,-0.007803164570582068,-0.01860257304889406,0.026891930052218148,0.05572662119958193,0.3912403380743811,0.3865693907298767,0.03905088342496222,-0.017926336286929245,0.005578258720355358
198,0.0009313233461484697,0.023020300742827862,0.03212087279857594,-0.008989874547910557,-0.01195692523336496,0.02663491260058959,0.05514964417000357,0.3887522256669597,0.38259759228234347,0.035864020842698845,-0.02146803948534303,0.0031389882727306667
199,0.008199671247072786,0.029858631341693923,0.02478935774614903,-0.015047360811660684,-0.0047837332254509896,0.028567398161945416,0.048849756577229446,0.38357981783004186,0.37631719389549434,0.031124110024196856,-0.026890594303101097,0.001271921095642163
200,0.008351079132987474,0.0364605598847944,0.018923617016484578,-0.022032948353491077,-0.006655775935799822,0.02711331018598591,0.04382760918714888,0.37876739609069776,0.36983327276073175,0.024379558791198366,-0.030684775545112758,0.0012760920293564543
201,0.007410152790874939,0.038436495124316385,0.026396380384031613,-0.02457195291150087,-0.010074151662650781,0.028011630965179484,0.04240105463435408,0.37395566385050094,0.3667823249775309,0.016969043849758197,-0.03184236213571022,0.0030377270034098146
202,0.00543460001487769,0.036490137745198103,0.03613454800736421,-0.023197365848174258,-0.011297173316120648,0.03229556514670484,0.041505879356245085,0.36722808221959385,0.3643707502061171,0.010894509410191575,-0.03164343074512435,0.005441231585705659
203,0.004024248289976202,0.03377941736924765,0.0393112099497238,-0.02176879436092826,-0.00947744517248789,0.029609960931553707,0.039460642422874094,0.3574894712106456,0.360978061658304,0.010097685927939831,-0.034516730463992264,0.006870444146491423
204,0.00942375959267829,0.03144859480458891,0.03310724702329838,-0.02084535588473869,-0.008607409885606782,0.025560348319207123,0.038220331983108494,0.34960055427236225,0.35776885776032674,0.008385653904610782,-0.035288446017655725,0.00709403303114561
205,0.01078683293210354,0.030428406654416623,0.0308868076102013,-0.020691021119114687,-0.008607160261628308,0.024164985861015283,0.03784952432015904,0.3447010640245972,0.3547349579142744,0.004574658981816936,-0.03563046151690926,0.006693300503008932
206,0.011730585904232031,0.03257461914608144,0.029867659472560076,-0.02221752706418959,-0.010867689970965546,0.025665152845936037,0.0366732412018406,0.34063130490440363,0.3500496684132206,0.0028334029538463062,-0.037029279797857535,0.0056444632037976825
207,0.012705301666637261,0.036734347496889,0.03328599873788641,-0.024759645726844373,-0.01000171815106765,0.02936262670949262,0.036028219671441146,0.33406913810238315,0.34443641087483484,0.0023339336448116033,-0.03578367008739263,0.005062789213078928
208,0.01067105406105743,0.03868118409882834,0.03709502361763754,-0.026001356490334786,-0.0077958559552775645,0.0316769878394776,0.03726198416569585,0.3239084767192222,0.33771501859277536,0.0012039976950507097,-0.033180636933091555,0.007172771678124419
209,0.008071950055104814,0.03708751700675947,0.03627903755053489,-0.025628864989498457,-0.006538988462157704,0.03239731710432309,0.037293656570590465,0.3132807573645438,0.3308747139395488,0.0017435040311350111,-0.032559660828449126,0.012347405531151344
210,0.006511002362194988,0.03554618272093213,0.03378511523422621,-0.026384291904409326,-0.004389144627630702,0.03167750560294141,0.03389889406704739,0.3010829035800823,0.3205437258289242,0.0019331763297835529,-0.03244087869445636,0.018707778177678422
211,0.009942012172606401,0.03752980184951107,0.03162396319651726,-0.028845919515502878,-0.0013847820739854978,0.02959769999564827,0.029803668431786327,0.2851550840548673,0.3056488269931209,-0.003940866761710217,-0.03190441030902098,0.023888687273975747
212,0.022226505646697696,0.03910022241162864,0.02234614175522312,-0.033307280682554286,0.0010517580849140097,0.02427972838197894,0.030038681095187418,0.2653746928027223,0.2878649818058894,-0.012305089981944968,-0.03074058237160185,0.026927143434431644
213,0.03206597001415665,0.038570945946310595,0.012902263471696741,-0.03527240505454245,0.010162761414203535,0.020006406974250865,0.030229728206648522,0.2455076735100819,0.2701586521296545,-0.01520510378800595,-0.03062168568170163,0.02821377677542282
214,0.02780921346139045,0.035922969197980964,0.014975779934003848,-0.03267114525980962,0.004773212866522459,0.01814409230476885,0.03208119660811282,0.22877758598085873,0.25501627003563854,-0.011718043486908476,-0.029679581925440943,0.027243510664567934
215,0.015464757885730138,0.035946629151593246,0.022525318940275558,-0.029753156265025567,-0.0075584483097320704,0.022805804137189127,0.0408318567100295,0.21487892327651475,0.24370351892482353,-0.011725015012343232,-0.027535384216992108,0.024148750898337616
216,0.0045650428171900926,0.03775228098218912,0.033849906267276186,-0.025396729202151132,-0.020374468929037354,0.02987249725289583,0.04880466936541363,0.202809487228815,0.23260175214001627,-0.013752626740515028,-0.024841972281787077,0.021339229885239123
217,0.00017925892671082338,0.03803435560406906,0.03799120845727751,-0.02818339217808217,-0.027976593669995407,0.03265457952175179,0.05281385437118247,0.1920178013807952,0.22203622705190204,-0.013503710942253395,-0.02094050627234368,0.019521998845998298
218,0.0024190426632614854,0.035998598718804696,0.03515227137772134,-0.03295051362972164,-0.025786696833557526,0.031949917667110694,0.054885339566725484,0.18126388763321924,0.21067246149065832,-0.010277701742641213,-0.01644249714326899,0.017655051461285504
219,0.0052605625630597974,0.03601626882144384,0.03190459179311274,-0.0337580552533024,-0.019655407837054828,0.029623752435182553,0.056758328759312124,0.16978543117195888,0.19613885162171646,-0.010928567227210632,-0.012854455753501002,0.016605241996181516
220,0.01087812166269014,0.03430268735388716,0.025908032453906233,-0.031028400796294348,-0.012575870831472033,0.02563068833100064,0.05820288524695311,0.15866653477257348,0.18247443627930338,-0.014592061699860555,-0.01157333360703974,0.016489624099158145
221,0.011598741081480596,0.03073036192557413,0.018099608412989972,-0.026674923649953948,-0.00671337427696674,0.019868088229153653,0.05988105313624982,0.14773308364477525,0.16593770807223646,-0.01658918267075018,-0.011802885853080442,0.015025609416371755
222,0.011260275010884764,0.02677868616469961,0.01220743437221864,-0.02338770689840942,-0.00209952429798252,0.016589349650243074,0.061821256234636836,0.13327999469737398,0.15135610501261312,-0.016027616805420218,-0.010841638297968165,0.012599141006723266
223,0.01252070164430312,0.0252692502415042,0.011598738190945496,-0.02304302253737279,0.001445532634668869,0.014749456786447833,0.05948902806768618,0.11414492033714664,0.1374104092894145,-0.017465819199567405,-0.01161755015534753,0.012542427544070468
224,0.014163621989907385,0.02454354229503765,0.011901009666504063,-0.024135436991215745,0.0016440243510330303,0.01338958346834999,0.05363940019511447,0.09577220748525163,0.12312213793201168,-0.019138801648005785,-0.013131994776003974,0.014980996558024266
225,0.017858602342305442,0.023325843901405387,0.009185656357032751,-0.02389592439404112,0.0013096972030525954,0.011920007085914607,0.05017738827873362,0.08364634735834767,0.11269548823068998,-0.01939434088094067,-0.01165721103496705,0.01674858963833547
226,0.01947235690115337,0.021700450807581602,0.00834166134289731,-0.02104060257876507,0.00226738762397647,0.012697073087392024,0.051437312193391746,0.0768848240510634,0.10479468372211445,-0.01693962626366767,-0.007731107590197198,0.016781975759831532
227,0.014741175982911546,0.01891147494678606,0.017286570901569924,-0.017543868626179734,-9.039992454008047e-06,0.015775039936330552,0.054519579284466546,0.07001227478913474,0.09398155001396037,-0.01295787350282037,-0.005250185073195333,0.016342630752391663
228,0.00546094244029121,0.016999839714871963,0.024805724873674755,-0.013309220904968675,-0.0020834914720670597,0.016986592163873958,0.055902982601727214,0.06043069726120376,0.08274370625051812,-0.006815386488341471,-0.0037104881849204623,0.01616970119823403
229,-0.0026150808762011937,0.012911445700188628,0.023746995777216715,-0.004691923122988605,-0.00473087562519503,0.013759345842608977,0.055653588750093935,0.05145056820603178,0.0729630691879946,-0.004514137775429625,-0.002100475886025549,0.016704227541360455
230,0.002604186625807513,0.009074898175874042,0.01402511585627918,-0.007230072045907774,-0.001551065566891395,0.008645701662852737,0.051421116418623694,0.04389761976940333,0.06492811141830232,-0.0074050613043000965,-0.0017706699758831303,0.017583917285206953
231,0.00923337010885638,0.009087715237458579,0.005203498089792216,-0.01489219465921356,0.007301172987390155,0.006341279130822381,0.04168984613613398,0.03329369769496447,0.05780691971865472,-0.012860093216701153,-0.0033967964489178028,0.01647935059481043
232,0.017000967929590223,0.011051774193485197,0.002949484606492623,-0.01635014473292157,0.009885630196101954,0.00837470821303722,0.03473097843709434,0.020455361571047014,0.04762792984853373,-0.01517795291905897,-0.00618450483091821,0.012818500855694411
233,0.01386435278493605,0.01130063226601848,0.0054559825333609655,-0.013251064657155913,0.004454526364755026,0.008759262904211884,0.031881995797820646,0.011147393236832424,0.03978275137863964,-0.015215698836813951,-0.006430781906696777,0.0100219780375119
234,0.0065582049286624,0.008213948501956527,0.008944064933057015,-0.006980403808262902,-0.002209855894323997,0.008594271375771107,0.030907347232529844,0.006186799530383091,0.036104982582735895,-0.013197507566455637,-0.003908450854747711,0.010425125256418259
235,0.001244584603977402,0.0011469242353276086,0.011918656195503828,-0.001063645210654612,-0.0037593657757495963,0.0024594660820357267,0.029956220696371293,-0.00015903288321852602,0.03397775569905352,-0.01008188375523323,0.0014414458014803816,0.012241887552345274
236,8.538196705618496e-05,-0.005050694860570372,0.006120701071471559,0.002700679163590621,-0.004071746271460688,-0.0032328200790657444,0.027659618063605833,-0.008553020654387363,0.029882004833145265,-0.007576771303610827,0.005789335548724836,0.012202636342186095
237,0.004051847247937786,-0.00697951827716504,0.0022590666536613973,0.001885040976734349,-0.0019597380249762697,-0.005608203094784724,0.024303947401446598,-0.01869934455279417,0.023327985279134163,-0.0073396257847228134,0.0053233156727383844,0.008765490706039152
238,0.010797577325647033,-0.004666797066579357,-0.0035149439883919165,-0.0030375523640883938,0.003122644631998945,-0.00641485351533308,0.02291288769112755,-0.02647191521523433,0.018388501291731422,-0.008456458876764862,0.0023266878832033794,0.004911465603641009
239,0.011776762076238338,-0.0038047432010176047,-0.005747109041725356,-0.006762896830333703,0.0008086008681667256,-0.008733634695320075,0.024259031307020874,-0.0293296491124981,0.0175762016822169,-0.008371255486367232,0.0020121861285306054,0.005937802705517577
240,0.0031715546734911075,-0.006075126126106875,6.184240700667348e-05,-0.005709850565629502,-0.002952069872024947,-0.012101281687261897,0.024245176833758805,-0.027853158716531053,0.01813486138482219,-0.005201593691406329,0.006194838893069474,0.011891813388637311
241,0.0008942498134701417,-0.007438381867048658,0.003324794200381696,-0.003990809800943759,-0.0030615033027297347,-0.013174546383455738,0.02091569434491196,-0.026644590142062972,0.01862902084245994,-0.0037399109869696683,0.010404079434862396,0.01637514140830675
242,0.0025585013045978638,-0.004762443418982118,0.005221701012094193,-0.00548099446875362,-0.006995639160937127,-0.011548365724263928,0.01755413113072262,-0.027432135224655693,0.01695720914005667,-0.0016124104796992854,0.011317051163571203,0.014633343144668742
243,0.004700804103718162,-0.003799308109058843,0.003913716204230011,-0.006727887128532088,-0.0073304696854499035,-0.01332908904005067,0.01578911173763191,-0.029607672991799443,0.012623656695548944,-0.0006126471416986398,0.008588369595375872,0.009412947093341995
244,0.010308330490280248,-0.0046463414052712055,-0.003777857665341543,-0.01024748710645066,0.0013931350310680737,-0.018367957626979674,0.013831698362957931,-0.03219532493143255,0.01029931087804836,-0.0007193720477385937,0.007780247634155541,0.00627042947464156
245,0.0138345152717256,-0.007152867744614006,-0.016249451856378612,-0.011322597465010383,0.014047229568674956,-0.023883302979564945,0.011521107975789285,-0.03253718647537379,0.009160337801124178,0.0002861051626635372,0.007853750440490859,0.006070661946270879
246,0.013275449493948148,-0.005069840442902962,-0.02132076556968948,-0.011024450706967321,0.01896826774165454,-0.021924993351682596,0.009977992562627512,-0.033066477943300615,0.004489524251379226,0.003366585864680055,0.005229904237479269,0.006716852528767681
247,0.016468247070546727,-0.00019002738363170513,-0.024294691620349123,-0.01038325391073329,0.01876570674041892,-0.011401687314491574,0.008677607011178472,-0.03695861785625611,-0.0037309859645844427,0.005323507609761809,0.0045851638911505455,0.008063778966313648
248,0.020583601108761184,0.0021461026048090366,-0.019981724378216614,-0.00868643976577961,0.015508859992436792,-0.0027333321289122175,0.006332601671430488,-0.04281812051556607,-0.011060036856943123,0.007715234335653871,0.0057674639990234824,0.010379576795770538
249,0.013074802050305288,0.0007349842863073521,-0.014592233766729652,-0.006233686484404944,0.013884674064201722,-0.00022100544408614267,0.002329912313856812,-0.046046302594913144,-0.01203784933577278,0.008665005962936723,0.0059349730740163,0.012433468358124408
250,0.0062986411064154795,-0.0020587111382746014,-0.011723127489971823,-0.0036201441719282343,0.013690596761145844,-0.0023744814854846884,-0.0026329646187208677,-0.047421414874476,-0.008812720624690138,0.0037448598522953416,0.0024896808591049514,0.012566930725948146
251,0.0070421110288744464,-0.004481228951842841,-0.01835906902611514,-0.0025719359306360327,0.016275754405551512,-0.007514928717450356,-0.006778430459959045,-0.05080115396324372,-0.005781049997335584,-0.002301809650517836,-0.0006046985931150821,0.009367083539220413
252,0.014380037420253823,-0.00601536128137219,-0.02449140745226975,-0.003930166756157007,0.021937064036122986,-0.013509200874671792,-0.008778608456558916,-0.05507639601946596,-0.005650860194831696,-0.004922151879946476,-0.004737220019706872,0.003985118166612442
253,0.017969552948666114,-0.006188995961935296,-0.022170195316414773,-0.003991244381746696,0.02024610604652536,-0.013687555815429213,-0.008271407719958757,-0.05729989407053764,-0.007508921436005488,-0.0035589531045682916,-0.0044912356000294425,0.0011367689475483972
254,0.014227075714354729,-0.005977944875383284,-0.018387264201114202,-0.0005670737327568114,0.013145732213728833,-0.010513239854828249,-0.005986782071573479,-0.056245052901142754,-0.009720027316953811,-0.0009295993022566153,-0.00031946502141409067,0.0036539386416799824
255,0.006969698343122182,-0.006837933430270383,-0.01308596858778234,1.4908150621956856e-05,0.008135887650002518,-0.006623449766855466,-0.004408929844976688,-0.049162509970066263,-0.00953311349667205,0.003200014876064687,0.0016489400026429568,0.009119092286348263
256,-0.000939109294719782,-0.007839062013138057,-0.006703396930995512,-0.0011951365045115804,0.005531371311148458,-0.004427421624034515,-0.005936703223913903,-0.04465047973093588,-0.008282406820567668,0.006871396267243854,0.0029430658511924827,0.01414729431301004
257,-0.0069328367809697485,-0.008186358859008654,-0.004109015881561045,6.754170164188777e-05,0.0025046454569655563,-0.004615909510492592,-0.009446487209263867,-0.04287517390943507,-0.005430675957980639,0.007950805787803245,0.004172873243131814,0.01653686409519622
258,-0.006902227233106409,-0.009298434657047397,-0.0019044911018769985,-0.003341634481056696,0.0015220169165257853,-0.008570934932909469,-0.011286518401172608,-0.041750205076903246,-0.003189468867229351,0.005046145570145901,0.007206510045630405,0.014274434383041462
259,-0.0018283954691823605,-0.011358740814244893,-0.0020352348054912357,-0.009059539890578814,0.0011230670997221263,-0.011941345611422885,-0.010380377129484072,-0.043455580222114584,-0.0036224573435629636,0.003616330184172411,0.009887328041022894,0.009193369194199847
260,0.001159338405983595,-0.01313321215062441,-0.002994906740216386,-0.009428463890111038,-0.0025722939873578502,-0.013148243828978773,-0.008764866178851784,-0.04896104841393248,-0.004508289521994096,0.00402179280202598,0.01224455991399805,0.007281218546860962
261,-0.0018015746350043904,-0.014572368987564553,-0.0001776883689410631,-0.006677219032145521,-0.0060171467953704285,-0.011567612904315726,-0.007181619908631608,-0.05364847244837537,-0.00020185467844043665,0.004777749250377827,0.011652991171025237,0.010844304564308582
262,-0.005944394861991789,-0.015286875979524977,0.009635892203789218,-0.0010319006410602549,-0.011062084805577011,-0.007466256550001302,-0.004909708466168582,-0.05246305251125461,0.004222580054143429,0.006754249703471611,0.011242496501258713,0.016847003540947494
263,-0.00745037777164503,-0.01428524959367633,0.012636014190276379,0.005758514706594126,-0.012794348722555565,-0.004427596200272653,0.0013689969495693857,-0.046392121469430295,0.002975340458158416,0.009405566065925106,0.008239427550459134,0.022511178243725664
264,-0.010222231372965589,-0.01256770110319156,0.006341633438366643,0.0038481275186524073,-0.0064826453154822865,-0.005647354685014905,0.004797006854493219,-0.04117396544989784,0.0009435408992081716,0.010682196414132934,0.008123517034437266,0.026000480080703263
265,-0.0024890117257692253,-0.012192603259023362,-0.000986092237423064,0.000891961666772103,-0.0027736418605505448,-0.009677361151689467,0.004013297128178814,-0.03928417166603776,-0.0045366683852173725,0.01002390578827542,0.009642231734020328,0.02571899414219332
266,0.002324903858491576,-0.013881055325842592,-0.0063105637128853895,0.002030663172929402,0.003946793157795957,-0.01277622987769695,0.002192637513857565,-0.038471718483498334,-0.012044252149772209,0.009003341577418524,0.008715001387874878,0.02316711425059971
267,0.004570154647044513,-0.01661160429868525,-0.006723175689325556,0.004715057279429308,0.006244847369966033,-0.014150051468557715,0.0004651256679540916,-0.03806781822956872,-0.016398876260121726,0.009010470597791628,0.007676964239172128,0.021513431764833175
268,0.008060501283490413,-0.018140137497500358,-0.004444002104574069,0.005759259611952129,0.00830444607690502,-0.01421022956870587,-0.002120859066465617,-0.0385568241583978,-0.013094735999543979,0.009878485813672712,0.007014592333896955,0.02105964124372044
269,0.014192028358006295,-0.016822101465762542,-0.0024813536127928017,-0.00011332167703552269,0.0042807887657707044,-0.011058295876889829,-0.0044891415030729916,-0.03847424534763551,-0.006101142413929561,0.010480691051055063,0.007632099393501256,0.0213007266621947
270,0.011767581775826886,-0.013247302658836436,0.0026372556253296004,-0.004631775365643257,0.000978252302859406,-0.006206797844745286,-0.0033638922670476377,-0.038004065561532255,-0.0029815746689997487,0.010192701230204715,0.007814272434913252,0.02387718747286822
271,0.0055418704937829095,-0.008047622836156456,0.010299464094684463,-0.0016715471210880864,-0.0020854082991525074,-0.0011980623585834968,-0.001015994360182574,-0.03861298951109497,-0.004503129478808265,0.009046191190759584,0.006829127393726937,0.028070445557116235
272,0.002286436754041969,-0.004796263277243324,0.008427978350296657,0.0014042684119853436,-0.0013315083712049248,-0.000508125451320794,-0.0009208312376786029,-0.038818636184576746,-0.005739460900549006,0.006516510755382867,0.0037947372408515326,0.029590067100782623
273,0.003318936230924781,-0.005090595583764025,-0.0012831569703853681,0.0002831216146591802,0.0009621510729413426,-0.005510859264922159,-0.0033882570978530924,-0.03699249900105433,-0.004610454201702523,0.0031667591069824003,0.0010641070062764081,0.027408968672600682
274,0.010180439341252956,-0.005531721844126446,-0.013124862804076098,-0.004138523809096396,0.00949118971045291,-0.011652275311948703,-0.004921550587843961,-0.03375921486802061,-0.0024127172266691205,0.002216777390016033,-9.033899868812062e-05,0.02461417547411363
275,0.016705526471476842,-0.0006047310016412295,-0.012737639607419053,-0.008194316626300479,0.014376373283495163,-0.008995168292377594,-0.0045693446140246605,-0.02976725374063762,-0.0004660093503276873,0.004973442493390365,0.0007559423127859455,0.022771476874194858
276,0.01883234943346672,0.002360885836448638,-0.0055697443001380825,-0.007490183203367589,0.0086912863952591,-0.003928412219692161,-0.004146683416893331,-0.02619625666694627,-0.0015468723132010462,0.008527057794771458,0.002445498005933855,0.021553569682895835
277,0.008706946258570302,0.0010063385142379082,-0.00035636644001176086,-0.002376283877546091,-0.00019958966763579812,0.00045199372632567965,-0.0026730915319738008,-0.024715204311560938,-2.8548024710994737e-05,0.010982903059593173,0.0024945595976902032,0.021451456832135715
278,-0.0036706484398033624,-0.0016849401222292434,0.00407004348067661,0.004461281004106334,-0.008176433042616582,0.003092680302064419,0.0023377453229137465,-0.024862500056759315,0.002604540271311069,0.012956124176525974,0.002141014156264831,0.023173934800016012
279,-0.010433397457608403,-0.0031038585956613095,0.0042527389615627555,0.007992277200779085,-0.011591407991255753,0.003086016898881462,0.009245777694169163,-0.025137534396966754,0.0016465085130310721,0.01421388012583669,0.0018459083843155276,0.02565571914193223
280,-0.010333523940238619,-0.0044003414860154,-0.001428654059196061,0.007327111568045762,-0.007555274339984653,-0.00043905092605466337,0.014306455964716178,-0.024621108017576478,-0.0004900620739489798,0.014303655722364955,0.0019714098032484507,0.0268540327199156
281,-0.006915160108481292,-0.006502440960988476,-0.00679161081114938,0.005264938663979845,-0.0015947573716601038,-0.005658635790791601,0.016704952155830864,-0.02437320395074688,-0.0007517344253012185,0.014045906849768298,0.003427760261859217,0.026867221605513886
282,-0.003811703272657282,-0.007927726925215083,-0.008467993441308243,0.0029751510743898438,-0.00020659855166802528,-0.0070951827938918206,0.017322994490271082,-0.02306604385906802,0.002560283397993866,0.014035716021899437,0.005514435704654475,0.027713055299008187
283,-0.0005992652365179527,-0.007939703553428117,-0.00356349410262215,0.000792999200915705,-0.0029534639946506196,-0.0063903902548999875,0.016788470484109155,-0.020585245023814022,0.0054316165139799396,0.014089461966327672,0.006970942060143089,0.030170000414455125
284,-0.0038397563364439245,-0.007595174771019758,0.0020712656021389716,0.0003793219188085728,-0.00950789044714755,-0.0035688114413475313,0.016154524437746814,-0.016122506093951605,0.006558136272540217,0.014087496671237588,0.0086669742647251,0.03340971355354409
285,-0.006979607350601009,-0.007548362112193202,0.009846466596714083,0.004518398999022143,-0.016209287857395113,0.0002608741639165083,0.015861914262298937,-0.010419494778784238,0.006564386182007962,0.014079617404038312,0.010812156354450212,0.03586652857560913
286,-0.009681937471072436,-0.007618378808812474,0.014816396202326956,0.005941261899601317,-0.017971458497350934,0.0017854588425305828,0.015475747165697412,-0.007331548604755935,0.007757158945279952,0.014077971631468698,0.011036748171338207,0.0357546060375907
287,-0.006665079460885826,-0.007495710844991354,0.011356645165754364,0.004674731828559797,-0.013199057379463305,-0.0005758480727649125,0.01474998661250107,-0.008236513150456128,0.010275013206222521,0.014076545063907785,0.008652139789200625,0.03333146378655951
288,-0.0012905337238623398,-0.0071637349035707405,0.010786607449847652,0.005981460782421573,-0.006891587522127823,-0.0001197339188428112,0.01462397662785217,-0.010182461072681729,0.0101340873527068,0.014075124320265552,0.00578862978149873,0.03083235535571719
289,0.0037597008221311595,-0.00618225299186957,0.004696785360335822,0.0037148221211822183,-0.0035224780084390497,0.00069501724858887,0.011948382353156824,-0.010733600386273212,0.009837448106515115,0.014073481468025235,0.0033398467214135474,0.028409848014179506
290,0.002362904074594307,-0.002697712800764201,0.005664546556399728,0.0009526528379966721,-0.0029405501487729134,-0.0010017629711920086,0.007470626650201664,-0.008955467539826999,0.010229007645730408,0.01407151317579303,0.0035919967603937272,0.024171878490909043
291,-0.0033825843519393987,0.0012097190476656836,0.008729219994052613,-0.0014048713837658943,-0.008722666613416684,0.0019300381229403422,0.005589033716468954,-0.006365584332901833,0.011683339361095006,0.014069351882734223,0.006303224840871938,0.019321515576416103
292,-0.008325163588137422,0.0010880980123093471,0.0123790186709151,-0.001816516783714325,-0.009492369693152362,0.0009717801699714174,0.010079468313522064,-0.004647845166154041,0.013482714316136568,0.014073299455858664,0.007710014146973747,0.017695407988677067
293,-0.01138898109516376,-0.004296706879098604,0.013415232742559877,0.0011122635477459897,-0.008789565489142065,-0.0027697257454070735,0.01566199518460752,-0.0046286924074009275,0.014939183194762659,0.014071798008038556,0.007167125252329154,0.020020793253957066
294,-0.007441906769278789,-0.01055736740951729,0.003647842345243621,0.0023043146345419797,-0.0018887866221720413,-0.007910382569660989,0.0173782900890158,-0.00631437305229356,0.01779839453911638,0.014012547014023973,0.005330244797032594,0.02408592044598138
295,-0.006913640267685735,-0.011889292992082717,-0.0004080552561007561,0.005886389290662635,-0.0038640533452776148,-0.00811501191848555,0.015429524824091753,-0.00869642473615115,0.02011428126725309,0.014018144905121026,0.005325688691990217,0.027257354222028095
296,-0.004599766642943888,-0.007869340535613695,0.0056611628160035,0.009513445292830356,-0.0076864618483770165,-0.002786496344651947,0.01610886295808691,-0.010184946100201625,0.02166223577030525,0.014307040932522736,0.004813787007697492,0.025417687760957618
297,-0.007923257261926588,-0.0050282898632864476,0.012798969652145512,0.00760633262434555,-0.008541270298892473,0.00025551861431945613,0.016129945153821795,-0.009895245136684244,0.021853928241882446,0.014239955964628591,0.004873896703906651,0.01705733833986851
298,-0.004886607142061485,-0.002700990707294149,0.011154469473712241,0.0037539777795965595,-0.004204838679056949,0.0020925236198683994,0.01410525004690101,-0.007617743645303286,0.02055222513544503,0.012804293110854955,0.00604328374189304,0.008994594970374477
299,-0.0033029264572093688,0.0018804301508775993,0.010109876981410198,0.002244464085729035,-0.004574249806510191,0.004625622823757019,0.011743232547988876,-0.0056612307973463935,0.019406107792240175,0.012737065109221023,0.008193260917020613,0.010178191852008103
300,-0.0017630494719267425,0.004158407449216755,0.0078008898113284784,0.0009755375574377091,-0.002455827541768671,0.0038228391414974854,0.012114586133644134,-0.004836181822103214,0.020947646795469354,0.01549979727034373,0.011406073583698061,0.021600841575214268
301,-0.002451415333525741,0.0036524502445543696,0.008245260380596944,0.002213629791010502,-0.004987962533904775,0.003114845872246452,0.014285254095780554,-0.0024271283345380958,0.026433984027285265,0.015326597425958155,0.015313633819861505,0.03583189069515244
302,-0.0025542231837198323,0.0017479889485223325,0.0054877133603807565,0.002756954453271466,-0.0017706833374379768,0.0018366054253592095,0.014536758872026836,-0.0007724238402226982,0.03072288041908266,0.014928959517758373,0.017405640665501636,0.043874944979410954
303,-0.0033819120429607087,0.001990074964237431,0.004393188715396015,0.00261771416213232,-0.0012323012784047735,0.0005662312753322721,0.01740623398859758,0.0012906577789306567,0.0292170570468495,0.013583040268657535,0.016369091006487424,0.04308607844502451
304,-0.0059023427772160264,0.003578309228293018,0.008948008724713463,0.002052913638625647,-0.008769647782333797,0.000670857047621415,0.023045377742809244,0.004509651290506272,0.026314280077335703,0.01666711874071327,0.01496441623915623,0.038455916287776434
305,-0.0028702396137706794,0.005529120724842321,0.0163944207213844,0.0005608292066869355,-0.007449764204723772,0.005240900170860553,0.02718517124192018,0.005872306500236624,0.02578938121497054,0.02216311430716769,0.014966805512706438,0.03498117570888704
306,-0.0008603456411047069,0.005024895792215317,0.01565341598751533,-0.0008220238371074353,-0.0067718650736483844,0.006566068719726707,0.022989628354184707,0.0015391620099616393,0.025867088830844463,0.02448801624743396,0.013906505723074622,0.03327792451686227
307,-0.0038758298616567485,0.0019142767053509906,0.013146697323179777,-0.000614305090742737,-0.005668741133371043,0.0012158662915506806,0.018794155621750033,-0.006023062950520148,0.02394859365462819,0.019702914203139688,0.01006794046203741,0.03225737847857596
308,-0.005127300923118352,-0.0011700185324228212,0.006705997482636188,0.0036518759366538506,-0.005439204008507536,-0.0008001088369838389,0.01795868849382897,-0.01004062802379213,0.020985425946621915,0.01242214755046359,0.005867309262675348,0.030802119185633754
309,-0.004499645822826566,0.0002975944770885579,0.007927235099887294,0.006017539449457347,-0.004766769071217054,0.0015283474344240482,0.01794239741708048,-0.010383326024769789,0.019638900894290497,0.009199601000461837,0.004404636818433498,0.02860002180578597
310,-0.003305552397483792,0.002869651634685294,0.012391481899151844,0.004666362212759897,-0.008786205190182875,0.0035033578793493975,0.01679114325183676,-0.009423751161801908,0.02115040675790065,0.010845301250295057,0.005943174623986667,0.026844803707071645
311,-0.004658617801580386,0.003447042207554457,0.014385795027798694,0.005913543001627391,-0.011697786636478283,0.005189052714406153,0.017541282559566572,-0.009118325147473436,0.023869974525503053,0.01220515402613824,0.008677890960509652,0.02678258558076493
312,-0.006302877793871503,0.004023596254546968,0.01368504143622277,0.005201353895101285,-0.013148857127910377,0.006040385558437175,0.01934663982047672,-0.009682431984706839,0.02528211386103374,0.01239610243327869,0.011144545035855238,0.028676034709529466
313,-0.001490973065791823,0.005294139613869624,0.013832315669875311,-0.0006785602089432845,-0.008234630153933914,0.004747592639186564,0.01957587977355385,-0.011186590610549735,0.025170778080805867,0.014487850292197294,0.013529041275089984,0.03125217460661609
314,0.002109776083673599,0.0055194911344001165,0.015264383975492082,-0.0017156622452922845,-0.009093179991731565,0.0022912900414700467,0.016702748576166535,-0.011616502715740565,0.025121237175851227,0.01758708971688847,0.01705683308977053,0.03200136236585289
315,0.0012676781422808342,0.0036428698360839607,0.014204361275017233,0.002676662176099907,-0.008418654541120108,0.0009383572353275447,0.010683048898316602,-0.010331428927697535,0.023431016982874885,0.015765762223460267,0.019696443111394384,0.030234305352247
316,0.00026321195935433746,0.0008638892828723588,0.012184400023144209,0.0020846283178704347,-0.006169014003768524,-3.0320521105081308e-05,0.0038080179602480307,-0.01142849030570221,0.018933213558566926,0.008316527127517175,0.01797201032455744,0.027687910758947172
317,0.00727779595589815,-0.0028015953935639475,0.00480628284341194,-0.001422168000427687,0.0010919796539205155,-0.0038822516903225055,-0.0016654084076704878,-0.01746412891256984,0.014564727951945654,0.002064210805706578,0.01308623907058978,0.02496613103230745
318,0.017385468262989943,-0.0033569144265339548,-0.0033459421767632093,-0.005508488318620822,0.008172554193719261,-0.008216715938293118,-0.004406190870563563,-0.024854818022555875,0.011896134939147382,0.0013744659909090753,0.007038311357593266,0.02125171007651205
319,0.015988557208522845,-0.001426011464158371,-0.009108158636389146,-0.006568887266641818,0.006813599438201728,-0.008604844994474807,-0.003766290681417272,-0.028802341848471788,0.01277093995817074,0.003510084725275933,0.0029756912921196157,0.017315609981075418
320,0.006088735086738973,0.0007503347280995165,-0.00048045943748312864,-0.006408231427841043,0.0030448604179891363,-0.0019409109029797627,-0.0008462316339036338,-0.026792498505717917,0.013771095731943713,0.00530037635291504,0.003919459550330278,0.015454359530666522
321,-0.006168901958662031,0.004506855167788685,0.009009249418609418,-0.0017874210210478934,-0.008178242948774131,0.006835979291954242,0.00207400313288289,-0.025123928053282327,0.012239244822725807,0.0072336393138439994,0.003645191590868721,0.017294784547620085
322,-0.00549118136663925,0.007964284530913844,0.0066756607084557,-0.0017429716517175925,-0.007633601281624002,0.010603952442419021,0.004115932313292464,-0.0238705608614493,0.011126000770529346,0.008118936996747587,0.002918721260709925,0.022091581523483395
323,-0.002917967162202064,0.008447293407966043,0.0008716386675322683,-0.0025661221972613796,-0.0019243413539805402,0.008586740745478442,0.006359223660712926,-0.02398176557032205,0.015109897048922412,0.009193262445315886,0.006740585633343135,0.026479761820136533
324,-0.009616835598158745,0.004561370346166774,0.004043812216411908,0.003029588601872484,-0.006064503523278624,0.00835071819116831,0.009381750623598833,-0.02374334334340781,0.019262988134166645,0.010393266290317296,0.011356588357020192,0.028069084610853223
325,-0.019677234358004926,0.0017123695350614709,0.010252214107467787,0.012748467414199213,-0.014081496659549072,0.007996440947246018,0.010628720782902397,-0.02343562089993044,0.02097512877190919,0.0060354678963707165,0.014347612390915674,0.028088659269146596
326,-0.02386965798060291,0.0002695440473147667,0.017350990813895576,0.01698270623046873,-0.020457500370487023,0.007626786130625296,0.010465942195723096,-0.026164150722817883,0.019241628455361464,-9.620711469136844e-05,0.013760055677317959,0.027560045193251684
327,-0.013240947582013737,0.0028312426283530565,0.014771384790358638,0.011871519976225231,-0.012397288135114039,0.006350125884288126,0.006918599920731801,-0.03255801718932741,0.017039987081547227,-0.0034151142728004145,0.010156134508296076,0.024398687598433402
328,0.00029668667037433677,0.005002018666238114,0.007338625563049194,0.0002423681730671541,-0.0028847833032103485,0.007314958986414136,-0.0002921369305557489,-0.038559815120661006,0.015660871086077905,-0.00385858870234268,0.006149441871297932,0.017600669937139646
329,0.0073104668090494766,0.004773150826057627,0.0032064524281989843,-0.002859061831898788,0.0019913543668147304,0.00398922450338403,-0.0013905580900510708,-0.038342016967362294,0.012816053855659372,-0.0016305391167663642,0.004635134015069296,0.011030346595179721
330,0.006555183839649109,0.0034219143797385027,0.0015752939280374778,-0.0025083810142284627,0.004622969315858859,0.0016452417463825976,0.00041199941379864435,-0.034661809834580615,0.008108919967472282,-0.0007448410542055597,0.004898418289651263,0.009296816869839263
331,0.006483534149758583,0.0037222335451689674,0.002255486817131805,-0.0040975450387607405,0.005406288584638039,0.0009530683558962427,0.0019283103697369033,-0.03220044698766301,0.0029632853778738437,-0.001826042706962655,0.005208207289815019,0.011457061816830542
332,0.006124556194754913,0.0060052713113633496,0.007230856044793422,-0.0056159767519756345,0.0047228852976735625,0.002279597214530464,0.0012074527403088467,-0.03328808661841741,0.0015067695555262004,-0.0033507238298779857,0.005439382635997931,0.01306038666339623
333,-0.00037176478314575583,0.008518937884870771,0.012306843260992361,-0.004964243163433615,-0.0004248984971821491,0.006731632476755962,0.001203620067126293,-0.03723590089956179,0.0020939770614338527,-0.004484069351139961,0.005448929348610389,0.01319822700154082
334,-0.0021471213733949782,0.0076447100891977,0.017099741680314008,-0.002919193778475408,-0.005766755126466888,0.008600255351299838,-0.0038586036555405753,-0.03926830947162667,0.002074864965571383,-0.00732921125003912,0.00403114021706532,0.01421472463051051
335,-0.0020483569841360134,0.003982496887710208,0.012187605647303111,0.0004681386575972144,-0.006149215562242497,0.00356909867514476,-0.00871864329917783,-0.03900182724140183,-0.0018050201590675092,-0.01222849122335501,0.0012241880917824854,0.01633459496955671
336,-0.0019243544171226633,0.0025559803176942297,0.010847465809647579,-0.00022225983971988113,-0.003871071466612324,0.0024990875721777814,-0.007994552308386558,-0.03865760966320147,-0.0034278249587553064,-0.01411565150799881,0.0024849686178585774,0.018282576407657705
337,-0.005793650591606088,0.0023554852673111915,0.01422448058682842,-0.00014764509822145708,-0.007844298547023752,0.004279062019421468,-0.0038657773482315694,-0.03847728768068806,-0.0007953838983553079,-0.013941654240402543,0.004243660626836048,0.01987465270714179
