idx,I,II,III,aVR,aVL,aVF,V1,V2,V3,V4,V5,V6
0,0.014941980395863738,-0.01862635052304855,-0.030490058922444226,0.0007322469926814602,0.02196704950235744,-0.02684292010163375,-0.052126641629580715,-0.05330852609729584,-0.02876864324230902,-0.005176784593225972,0.011291470648451228,0.017318871599283598
1,0.0022758193311865835,-0.031006203959009423,-0.027888710254012447,0.014176207758297008,0.014198539553109752,-0.03468297346984824,-0.048714784055753475,-0.060278282427648246,-0.036205654319584724,-0.018616378850101818,-0.00383303820036926,0.0025578649882378665
2,-0.005072575848869991,-0.04410411296307209,-0.04254853713233863,0.023789087703819222,0.018709122642289827,-0.044716957030419946,-0.04512763067563264,-0.06708956191815899,-0.03930296148813718,-0.025961869537503728,-0.01668935958271052,-0.007337229526492586
3,-0.011497915195321496,-0.05843899245812988,-0.04665412910018886,0.03454549504689544,0.01676533611303215,-0.05355575506549897,-0.04191107161174151,-0.06793428536361734,-0.04780949672289628,-0.030527825341259134,-0.022210473816182963,-0.013881329019581667
4,-0.01593081146490732,-0.06950334370355024,-0.05146999891375995,0.04054772126510481,0.018435665080004344,-0.0591302570371412,-0.040618889142382944,-0.06953695055716944,-0.051290675192372376,-0.033114934802434014,-0.02796219742341484,-0.021206489286682263
5,-0.020411551636827136,-0.0722398741763349,-0.05968400599985007,0.042939547739109574,0.019250833056210347,-0.0637909041640653,-0.03367657074679041,-0.07534824374438803,-0.05099097088015049,-0.03552547541485148,-0.03469451917076691,-0.027658702007179202
6,-0.021313426182415187,-0.07545400517591419,-0.06134599823717457,0.045456574716911155,0.022263472432008477,-0.07007430833659112,-0.032590497871676755,-0.08114883111982679,-0.059327966328922024,-0.04313371592744671,-0.041730762317274864,-0.03385576741388754
7,-0.022553731198408773,-0.0807935880152503,-0.06095806657275709,0.04949739466175494,0.020345428162036466,-0.07404286265075156,-0.03249472307192569,-0.0850927829706653,-0.06468139934535076,-0.04958694397185113,-0.04865633660365566,-0.03765486794656744
8,-0.02557409087938012,-0.08447945562830514,-0.06088262698710444,0.055520609986386096,0.01947816587233073,-0.0759847856218551,-0.031851032392203674,-0.08710468111450717,-0.06738276923503812,-0.0567924415951248,-0.05089103337524352,-0.0384864954469741
9,-0.02623931988769489,-0.08336781405406088,-0.05867694715310364,0.0560175026398477,0.01588274749509532,-0.07162170959542238,-0.033733310193176866,-0.08912939581481835,-0.0696172078128337,-0.060110810421979945,-0.05140979914555094,-0.04036901763817078
10,-0.02749323404420102,-0.079149526343152,-0.05740522355356699,0.05200534702517409,0.014213932252676614,-0.07000971252988121,-0.03497916473748277,-0.08987592530462196,-0.0713429213217843,-0.060907359331517245,-0.048919814425708155,-0.04357518777431298
11,-0.024048327942866498,-0.07995573084118154,-0.05763895461971271,0.05256744971740222,0.015719182489892482,-0.07016049244778254,-0.03471894987338561,-0.0888307161732391,-0.07107349919946385,-0.060963127033830077,-0.04966324711894797,-0.045325751958518436
12,-0.023510516349579038,-0.07959810374485118,-0.05781913911666983,0.052119730372593334,0.016078180535014776,-0.06962730053431435,-0.03421320988617621,-0.08685502203354498,-0.07327770458206964,-0.06084393386383422,-0.0507628752397616,-0.0448815902542453
13,-0.02671661893601252,-0.08144698723179988,-0.05363282531180868,0.05606177076197265,0.011947540300066874,-0.0684585853753582,-0.033083142689632916,-0.08742441854852237,-0.07157695032634093,-0.05966219897610762,-0.04971440437606314,-0.04581883333366744
14,-0.02452080098523644,-0.08348169239084433,-0.05707732646521114,0.053555698930723386,0.016274093041829262,-0.06969184180374198,-0.03241136068197725,-0.08672737384820192,-0.06807836966412682,-0.057039145877746146,-0.05041733352344285,-0.04452638112841178
15,-0.03089895032373242,-0.08278470512589406,-0.05794353025064583,0.05127642655041072,0.01756160493549843,-0.07351033059823696,-0.03205873420599199,-0.08496211432494183,-0.06738732353095175,-0.054404445587680504,-0.05370563354994061,-0.04460061166935234
16,-0.020975287462860624,-0.08322672371392908,-0.0639829879724662,0.052666425913773074,0.013958644694425495,-0.07452353494675149,-0.031154740060728898,-0.07874842282200381,-0.0681288389045678,-0.05339777365620719,-0.05383669687238085,-0.044259273246303764
17,-0.024367539480329745,-0.08335899548516024,-0.06255408014617982,0.05351315159814743,0.016984027895171918,-0.07387521691922395,-0.028206823868739538,-0.07351525071382084,-0.06388550957274435,-0.05297023031032296,-0.04960127040155683,-0.042261889647349914
18,-0.02802049871715281,-0.08226196100424879,-0.06467325699275564,0.05368310772187282,0.01878555143533827,-0.07553048882638731,-0.025141677763802474,-0.07666559539246445,-0.06383632607347754,-0.053606559937762914,-0.04575075262181287,-0.038951621718925876
19,-0.023680777417489206,-0.08126451728309766,-0.06513529128971701,0.05594806752702705,0.019651126087583258,-0.07463957588999696,-0.02590519063500103,-0.08187359128945709,-0.0649526637008175,-0.05409042184845599,-0.04400199737320107,-0.037264076091621905
20,-0.027874619432429738,-0.08033763989074535,-0.06294177225459964,0.056799424612423974,0.019385926918048555,-0.07592216995100466,-0.029978371397853948,-0.08370170554149203,-0.06646266530020271,-0.052180485975988684,-0.043958247768755565,-0.04068881527020616
21,-0.028513230369979038,-0.08037381105136127,-0.06200882391736951,0.053151899762047025,0.015797251807361613,-0.07631834234521402,-0.0331134692740835,-0.07978144249029145,-0.06921967544239699,-0.05508578156975039,-0.04610912217763151,-0.04276907180401283
22,-0.026849963608326383,-0.08560591260534964,-0.05959857311717251,0.05169095345293637,0.018924346654109223,-0.07368767247878882,-0.03156960120270594,-0.08029323897310345,-0.06441962391281067,-0.05381836019120629,-0.04872704032452439,-0.045067856149824066
23,-0.02516130255432761,-0.08266299975428995,-0.05423606641631167,0.055166809103599695,0.016605782866829993,-0.06965215301686067,-0.027207705955212838,-0.07864032111341956,-0.062002596486837036,-0.0514092005011532,-0.0495032417080211,-0.04177259073767054
24,-0.02777482287489785,-0.08052437173083196,-0.053000663149740085,0.05272070935890637,0.015226608923651965,-0.06768119654383983,-0.0203713861831162,-0.07389928803896509,-0.06007614429230726,-0.05195523156353662,-0.04760174918108774,-0.03876236824908375
25,-0.02325750770931415,-0.07881225578184944,-0.05592942520829578,0.048720762913908686,0.01593826519377885,-0.06896795689144508,-0.01482388099094461,-0.06557451753036062,-0.052373160439936575,-0.0480715341980388,-0.04612080998286959,-0.036273714797918806
26,-0.021362931912951074,-0.07923752057399919,-0.052438521575272685,0.0488784973788752,0.01582725328111646,-0.0703405095817764,-0.008307113387919174,-0.047355088589615874,-0.04724878910526807,-0.041572525508266976,-0.04334480541604607,-0.03579074419067168
27,-0.030133509178818647,-0.08461259190134054,-0.047805479083573583,0.05731696032987034,0.009310658641171136,-0.071330292276184,0.008706423127051777,-0.017631959962638985,-0.033256088629096694,-0.03679616534413186,-0.04163153113091647,-0.04051200552711213
28,-0.04021475482025265,-0.08365433628861638,-0.040130527351141074,0.06348469583414003,-0.001686213930950968,-0.0643466838884157,0.03402818043578132,0.02085672535627449,-0.012671331519371519,-0.028596646041145903,-0.04317627323185036,-0.04752315299221404
29,-0.04506636088574084,-0.07229071796584208,-0.026448890514859665,0.05810393141344458,-0.013215036737830862,-0.05240723340322157,0.0609486381582827,0.06750956039337806,0.01931992351763525,-0.010699128608514692,-0.04178934518371809,-0.04938161395627958
30,-0.052735062380629624,-0.06664240040646002,-0.01797642461093457,0.05943606475967583,-0.024373915062787924,-0.03801312063834555,0.08995884822298544,0.12949642695342267,0.06327231187328197,0.02099939409706511,-0.02864240135011145,-0.0502754647557511
31,-0.05603120365393431,-0.05445275287576536,-0.0001152047360780898,0.05809018025724985,-0.029544780488953058,-0.026521581794937146,0.12260161066572939,0.20982616517749486,0.12260529658133039,0.06450228631763101,-0.007900080809539349,-0.04458999017351697
32,-0.05407815662855596,-0.028802311716664794,0.023544293190493414,0.0420056544979886,-0.03937189269840585,-0.003547688366639566,0.1656032717232782,0.31385772280079755,0.19948647750060067,0.12824471946563382,0.030004707125257657,-0.02073587022304043
33,-0.04410687286152447,0.01447957441857302,0.054688310199622066,0.014078369490997607,-0.04558013745035812,0.03734995599679535,0.20942953057488634,0.4272704115292775,0.2898281529663762,0.21423902764933975,0.08836082945908454,0.026545554395165677
34,-0.023515133093979294,0.06792962166453947,0.08603229966641117,-0.02415368627119257,-0.04658611625560359,0.08292645786985786,0.23854798863246998,0.5226345055159793,0.3688242577145259,0.29658297920803595,0.1657165677025791,0.09286927792814786
35,0.012475699297919255,0.12393729343760695,0.11127152047558167,-0.06383211381737257,-0.04501445025059585,0.12361891892435264,0.24100083456281765,0.5792749701866402,0.40849193376836584,0.37550079860284247,0.25382000014809997,0.1678980570446541
36,0.06107832719267571,0.18344866788723013,0.12112250719038233,-0.11362120091077847,-0.035704754560475685,0.15842410857255113,0.21296899299292374,0.5811015088117141,0.4227433400871186,0.45205608694936855,0.35434414552078797,0.2649636658278882
37,0.13185058894480398,0.24402260571965348,0.10954389934433015,-0.17781497279020586,0.006733645457969598,0.18038159884417226,0.14460741743076605,0.5382973420809212,0.43115294772831453,0.5241403467960413,0.4730207902073077,0.3932342129947187
38,0.2102147038736786,0.2998175906634042,0.08968496388278109,-0.24936655003074984,0.06113163943604908,0.19518643360230212,0.03527613674061143,0.4726151677866222,0.40852949112970005,0.5819962648674504,0.6022183784295314,0.538853936315936
39,0.2990716421831236,0.359162662801531,0.06414996334808432,-0.33198937553891383,0.12360642937311168,0.2124461089514121,-0.0834798971538176,0.37051558921079947,0.3731564607067017,0.6311115057095806,0.7294469828903766,0.6832337375347245
40,0.37437074811526755,0.4359258705413254,0.058893626478052276,-0.41532148659512824,0.15504568645585617,0.2381860963298058,-0.22538854151011356,0.21837896700732257,0.32877227479051874,0.69904208003802,0.8563230955349144,0.8403382081634888
41,0.43874678531779904,0.5201365447618882,0.06441135582787996,-0.4880261293212605,0.18605240409574986,0.28510644014585795,-0.37961591823596225,-0.004945789317361126,0.274571689882198,0.7593472252876494,0.9987930939777494,0.9991419478792396
42,0.4911931379503995,0.5776516352263702,0.06354922964505832,-0.5324811135136488,0.2059026474399236,0.31876072680267115,-0.5181726531254285,-0.31255703295625586,0.1754418128024974,0.7492920166002082,1.1106992768837238,1.1200952880225454
43,0.5144879830029934,0.5658212359067871,0.04903876402887252,-0.5451748752978892,0.2202984775827609,0.31239657564552215,-0.6293134639156021,-0.650434138855307,0.018613485434803165,0.6407864129957566,1.0954146031445842,1.144296322453412
44,0.5097145850653247,0.49312359850042947,0.005907405409013104,-0.5130103118019373,0.23813564938088444,0.2518144860357735,-0.698530497285994,-0.9780197758893078,-0.18487979825734183,0.4468581980407336,0.9471227139656807,1.0429017214779195
45,0.48482068482328816,0.35241096125609356,-0.09479948760577181,-0.4365542616357669,0.2714461186073629,0.1284359186544177,-0.7692541991376423,-1.2498656223626181,-0.3938412548057222,0.1893665600403441,0.7170207435144572,0.8694127107913756
46,0.45756292911796065,0.19556286434082706,-0.20222224263959251,-0.3295524226121045,0.32528569787808004,-0.017861694538190205,-0.7543333268170576,-1.3805906782468031,-0.5717499875073733,-0.05804397344658035,0.45236927534976346,0.6465307264163916
47,0.36048493565025874,0.05520923655297367,-0.27208268453233947,-0.20723268663317607,0.3318755443454904,-0.12555860281519274,-0.6801356731840341,-1.424874488744339,-0.666430547836021,-0.2250440861744691,0.19337466792801455,0.39435529512243256
48,0.23961754791927162,-0.051169814517708655,-0.2765230129824188,-0.09365844637540324,0.2649418719288275,-0.17254085567630284,-0.6110732459024409,-1.433743620188557,-0.6999504447411042,-0.35740135803633866,-0.04145502199251984,0.14340952165459392
49,0.1434134653841444,-0.13664539170542797,-0.26067960976531934,-0.0028186165139800073,0.2015224142880864,-0.19555923775522088,-0.6070896503749015,-1.4581579347039055,-0.7408899299056401,-0.4820697567345104,-0.2515755496709682,-0.07919274010594937
50,0.07970784446622062,-0.19569470625522373,-0.2675411400094574,0.06904207509797801,0.168030093378811,-0.2239764446549886,-0.6160191340186725,-1.5038463062463299,-0.8138324874966743,-0.6116880641812321,-0.43717859341166987,-0.26391822210574867
51,0.038453315148320455,-0.25907980822233906,-0.2996203635312987,0.12231386469944201,0.16813592165677332,-0.2802537759326136,-0.6240546047573114,-1.5483595909838324,-0.9149300110892392,-0.7373084231108773,-0.5728885590034284,-0.3960745024352051
52,0.014521941562904267,-0.32362324992666114,-0.3437492327816605,0.1619562839194166,0.18001641299957902,-0.331562702598096,-0.61300557864966,-1.5224490467058156,-0.9897149792799086,-0.8274148008078884,-0.6480077372674453,-0.47018758464548494
53,0.0063515759559786104,-0.3602516060492278,-0.3692671644632702,0.17491869863012516,0.18836793652352132,-0.3649369669304698,-0.5919159079489682,-1.4398498839331735,-1.0035427653735078,-0.8516094343689113,-0.6517862738181239,-0.47004933147725025
54,0.006678054780728828,-0.38266792188049287,-0.386255177547123,0.18880156752829616,0.19556258857568584,-0.3882738315411818,-0.5631786712817545,-1.3570078468870126,-0.9762402872143582,-0.8341306422412346,-0.6350806361637449,-0.45713718480304466
55,0.0046933278083687024,-0.4035946323138189,-0.40374727928647663,0.20637240564310455,0.20410054208059455,-0.40775448199300773,-0.5190891438579275,-1.2524374918862153,-0.918572387366112,-0.7814416143142607,-0.6100187168919434,-0.4382982020755107
56,-0.008289235041516966,-0.41297652382686795,-0.40433030831872896,0.21207804026397314,0.19798867188408523,-0.40521572625716995,-0.45579599755061256,-1.1185123895000992,-0.8268480098758622,-0.712682542496256,-0.5615440901384663,-0.4121072752245467
57,-0.018355070483790228,-0.38519494599434634,-0.3688911159924183,0.21135601791576972,0.17435173628601566,-0.37796171009693624,-0.39589741383865745,-0.974135135344203,-0.7292954337378045,-0.6342812244946421,-0.49498105659195196,-0.37268085491375935
58,-0.031702342284501084,-0.3510382748585315,-0.32744630595216745,0.19644252789386965,0.14998526181367222,-0.33987435992603177,-0.338854786215543,-0.8341907311671937,-0.623698188262493,-0.5437574188597805,-0.4297678748820773,-0.32469513415114426
59,-0.030911527860078506,-0.32234772537085193,-0.2942029716606516,0.18334765817242726,0.13108720226599616,-0.30919402761930564,-0.2552953069281853,-0.6747520266549493,-0.5228504123068181,-0.46537164367904366,-0.3692763237746724,-0.28029248503108534
60,-0.02917631079016798,-0.2878949598200842,-0.2585627195421799,0.16115742379520948,0.11996971989239759,-0.27779571226943056,-0.1711278191360821,-0.5418475963925978,-0.436066502360574,-0.3959549398828904,-0.3194573000405703,-0.24491537861598903
61,-0.02501856175175254,-0.2543711384008878,-0.22225870236513798,0.14024347270472176,0.10243799132724377,-0.23317868900916325,-0.11213275269507134,-0.43020692505639707,-0.3568492192352867,-0.3306545808775459,-0.2717339841522647,-0.20738744648818194
62,-0.023619244647840317,-0.2112222091628656,-0.18001787416313586,0.12264446826737492,0.08263811489343116,-0.19653872076655463,-0.07485851634629517,-0.3360463532715811,-0.28665680225315915,-0.27284927422661287,-0.22860467495844722,-0.17191825152270293
63,-0.02652221984342953,-0.17496310752739122,-0.14502208174276776,0.10425086820242518,0.05486341054916124,-0.16054366837829268,-0.05080023559064563,-0.2622656542793543,-0.22456233973674558,-0.2160745182961554,-0.18830952122533562,-0.1434710039859692
64,-0.02885335100677087,-0.14340576097421318,-0.11914339669292136,0.08914985071605509,0.04398739947834329,-0.12598228532457584,-0.03503843439659267,-0.2062540019025881,-0.1710853194054974,-0.16953337754347028,-0.15113974019210036,-0.11830948705680261
65,-0.02859036140660767,-0.11305919438789544,-0.09474071892180494,0.06713712760959879,0.0347987312834031,-0.10481863575840406,-0.024669798135546227,-0.15919481860885354,-0.13156562322408144,-0.13069926426967524,-0.11831488179969464,-0.09962938430605228
66,-0.025551548176751825,-0.09839709931859236,-0.07659141888888772,0.06253974407305027,0.023443234097019285,-0.08740578019446915,-0.010775881588738156,-0.12252677643736587,-0.10768428515804634,-0.10452423737253874,-0.09624835672283498,-0.08283933349251368
67,-0.021655487568069596,-0.0828953624086339,-0.06297142656196213,0.05284084531372993,0.015161338891982573,-0.07385207358885186,0.006615125030321269,-0.09959114266821226,-0.08935905615357008,-0.07960702031672745,-0.08226913942236859,-0.07460532533947156
68,-0.027382272752252006,-0.0723382102487522,-0.05672959288981167,0.04657821212545267,0.012287249719859838,-0.06673151799952134,0.022022274759106918,-0.07739840697213288,-0.07891281948500523,-0.0725859342888224,-0.07476870429508271,-0.06635607970563767
69,-0.023175048383890524,-0.06812659141547067,-0.05592594609298916,0.05005517613954705,0.012263014806759526,-0.06305538176804316,0.02818905689455553,-0.05783036397446275,-0.06986616945257637,-0.07026974438739353,-0.0714656176903347,-0.06202582297182097
70,-0.029654134340529815,-0.06711383839030033,-0.051826655067354094,0.048488627234459056,0.014475007915259403,-0.060388925832381105,0.030830499444262707,-0.04208630954740732,-0.06126875378137349,-0.06724105486651669,-0.06812602603979821,-0.0614807232198706
71,-0.03131516104807165,-0.06806199433065954,-0.04314445611259894,0.045941403937578354,0.009935945034917121,-0.05885493987948979,0.03642505962449418,-0.028661033664447097,-0.0513778000675298,-0.0625024706473144,-0.0655528055010103,-0.06030626818385069
72,-0.03528112303752598,-0.06473549366352835,-0.03699140944147247,0.04463669180053474,0.002569845802154953,-0.04736867349146216,0.04328072336724266,-0.019390170068503045,-0.03779150764008385,-0.05712110052191611,-0.0623975854632593,-0.059590585354233
73,-0.03137089707128289,-0.06515349173244758,-0.032079129393476596,0.04257562363342357,-0.002581008480956149,-0.04407407783262646,0.04702394173982653,-0.014393766016765511,-0.02706552803462769,-0.05006467916906907,-0.05997350516494626,-0.057207954700088194
74,-0.03329855309369746,-0.0602300027162966,-0.030857265207516422,0.04180105252254962,-0.006955779083980585,-0.04755944499722015,0.04760850806586602,-0.007935979661501388,-0.021728330276347376,-0.04152542596798275,-0.054793484599211406,-0.053256268526925936
75,-0.03583383675508818,-0.05466485200331663,-0.029206468870471618,0.03972564570313816,-0.008711765741261677,-0.03853238859002527,0.048865023287172016,-0.005863292113644652,-0.01942711481767297,-0.035262135868706586,-0.04988722085617439,-0.050012435475846766
76,-0.02999469353334214,-0.05245620541449524,-0.02149085671445016,0.04235989765268153,-0.007771494447097446,-0.0352491077830637,0.05268422910089705,-0.003745000225481609,-0.017935009975421974,-0.027060883864748114,-0.045515394210347324,-0.043752628771961725
77,-0.03202304207411699,-0.054678401568148564,-0.017924124623527365,0.044361319863746806,-0.0020594322412702884,-0.0372199421993918,0.05598379195334758,0.0011485534809108234,-0.018075289878503112,-0.02499407163861559,-0.041773812405711264,-0.04135645501869168
78,-0.03272290879459919,-0.055231436341593367,-0.021254421049816702,0.04267085859926893,-0.0038581640406487178,-0.03916160779925891,0.0568957017025366,0.009445959345999311,-0.016490917480473887,-0.02598234438626358,-0.03817876151497697,-0.04121911698013251
79,-0.030627511980651233,-0.05298823393915849,-0.022523634660494538,0.03713666599985711,-0.0012741403700231406,-0.03867461340338041,0.0597808826661563,0.018928452055873863,-0.017661264632415203,-0.02774039907835322,-0.03841287870591917,-0.04030013284093715
80,-0.025801413693432442,-0.05156614145858839,-0.02365349217370252,0.03193237073005668,-0.004158700691814971,-0.038900096915383854,0.06721418000330198,0.02533061713054474,-0.010754093448377806,-0.02799109325942329,-0.042365365298778795,-0.04002320269671123
81,-0.02524292267206463,-0.04871210100511086,-0.023077011450162,0.03202068350850042,-0.0029737866504844154,-0.03825638489963544,0.07371386711044747,0.035813580191336056,-0.0025707797496134447,-0.026999973281639562,-0.03908577489787497,-0.03928086931939339
82,-0.026260031248879743,-0.04728189592156446,-0.02064959643780126,0.0373363839106004,-0.0032529335086502395,-0.03593633526137736,0.07446406989317031,0.0434409335865556,0.004635547613638826,-0.021624413161678395,-0.034151993521846835,-0.038382568828784526
83,-0.030018516099157174,-0.044556567434821656,-0.016639988745121792,0.03907277683000905,-0.011610370314388208,-0.028144076826732957,0.07180451171297197,0.04459017391835725,0.010342950013125232,-0.01709695450577483,-0.03026681909663584,-0.03663471172132945
84,-0.03083826606739228,-0.0405128289786921,-0.011586881751779556,0.03409935491521454,-0.01079220656587801,-0.02687815090924866,0.07008502805625733,0.03882106184090956,0.012474974707603496,-0.012983013650212379,-0.03066386253018516,-0.03584359676668824
85,-0.03163999461639001,-0.03087653297655172,-0.009244850363542468,0.026696129810301266,-0.015309473137720561,-0.020093205901335252,0.07108097914497438,0.0368504320326854,0.011241498198496291,-0.012861624035313983,-0.03160258884466484,-0.03468328358430433
86,-0.03065223957558613,-0.02764108964798044,-0.00748838944772849,0.024170134084093357,-0.016543329168340018,-0.019228423380746408,0.07291113359268889,0.03151107937861936,0.006703043926962998,-0.012448462150410462,-0.028232915337573106,-0.033584063951354624
87,-0.028133568212525554,-0.026545977183476892,-0.007390111053235776,0.02315548399465561,-0.01610797902047581,-0.01731131233650062,0.07265159395338625,0.035150148130858413,0.006285767514644824,-0.010547255335964935,-0.02986844139112846,-0.0318214093858818
88,-0.02937493754363082,-0.02352838588447767,-0.002625312284430704,0.024147117865469445,-0.01628676227491198,-0.01885963541071701,0.07263144826857745,0.04016647750110665,0.003843181893397392,-0.011955669746813474,-0.02781416957058172,-0.03099122877200152
89,-0.030599771733406927,-0.0263633800609072,-0.0013549606282546953,0.02497415897549345,-0.018023942635213522,-0.0145386487870476,0.07781294649344933,0.042311560887800456,0.002957422506058927,-0.012648307573622314,-0.027874461685036295,-0.029373961699693814
90,-0.026129655829232847,-0.02528819643788626,-0.0026633240319038024,0.02437010105903922,-0.014440161329967227,-0.017411919772147275,0.08576693350410147,0.04722319597978981,0.0026059104132580896,-0.01560138496978758,-0.028558358042995682,-0.028784836568418383
91,-0.028973311613302955,-0.02521141411030113,-0.0033462067209189903,0.024475090245151206,-0.015371404386271138,-0.017206105536824695,0.08912112596106636,0.053013836510597254,0.011482778795050552,-0.011527809182836204,-0.029539907847890526,-0.03129576639485173
92,-0.0285327505538118,-0.028729835649296154,-0.0019286368168820386,0.02475677008530965,-0.01437818771699554,-0.016247915336642965,0.08815081303526082,0.05881930308738605,0.018241093442720964,-0.007593924543613566,-0.027807351094455368,-0.030379168033413458
93,-0.02857584786457446,-0.02883747370225624,-0.0011750562056100974,0.024298870946171152,-0.014367466001278126,-0.016334004734221724,0.08933955521494927,0.0577448232595642,0.022113808365665913,-0.006725690055915959,-0.02347562106291752,-0.027321457413380913
94,-0.026933727958327613,-0.024980015484575756,-0.0013979767054263653,0.023004489555717083,-0.01293006487364758,-0.016317375384178753,0.09205207739201798,0.05371393798647793,0.021661677371188258,-0.0018052750605215481,-0.02195713601502039,-0.02760249784209217
95,-0.025744699010817367,-0.02165679377035331,0.0013704488380059023,0.022392390330286314,-0.01422397881462821,-0.013434217417104426,0.09129130578599354,0.05178322554224091,0.02640327259913704,0.004177379493810543,-0.018420195023924155,-0.024396695830480354
96,-0.02906767152522888,-0.023744983192596755,0.0015793227268719005,0.025965840742109916,-0.01919258279053651,-0.012001509336416293,0.08975921638632642,0.04938814894051043,0.025858082553166878,0.009984826365573678,-0.015864264439500106,-0.019572275426695075
97,-0.03036573042630294,-0.025115968293526088,0.0015945397739445307,0.027344434366575587,-0.020885084052308982,-0.01267939336334464,0.09094672553638392,0.04846155604484092,0.02150113118303376,0.006705632347254985,-0.01593313616130424,-0.01805168341460816
98,-0.02796869717734433,-0.022750703986620893,0.006698362275764773,0.022811852844597597,-0.01793636785167161,-0.010678654788012587,0.09079726964766344,0.04626439282632254,0.016430968624442342,0.0010818586693343915,-0.016671778148037067,-0.02020297740591038
99,-0.02071969995757077,-0.018960510684298423,0.0036922599145579067,0.016691103340111407,-0.012731751164421296,-0.007285654375575667,0.08826133591967708,0.04975661943148197,0.014980368413530253,-0.0028718664625146315,-0.01946491069098598,-0.02302372571989033
100,-0.01394744932989143,-0.016518990114850737,0.0031992533313360445,0.014306591958944532,-0.011510070620661558,-0.011031579406119443,0.08810568759025086,0.057008033287178655,0.013515473057028209,-0.004747664033496517,-0.022189168764684228,-0.025902092539721124
101,-0.018686927212273174,-0.017428908559906815,0.00040493401602877295,0.01711840444605701,-0.013600363477295044,-0.01137483368343434,0.09058873231137818,0.05972146553582446,0.018100233337587736,-0.0058407418018604496,-0.022589538558487193,-0.02561765265867435
102,-0.019525814843843258,-0.01994962851198715,0.0008104437376028392,0.02030314200329354,-0.014911675392209833,-0.01196842054755452,0.09297270778452685,0.06624057055071944,0.020132479657900836,-0.0032007551084014124,-0.02056301369695887,-0.02707230676864305
103,-0.019949989042360474,-0.01895571561732215,0.003320903638179067,0.01875323901754727,-0.013780580120840512,-0.007339910638051613,0.09515781542819465,0.06512388857598975,0.024763831051354677,0.0009465641625103841,-0.018182666535198927,-0.027790001376828778
104,-0.02763865568823907,-0.014535740690466044,0.011371363276375302,0.0216526185147308,-0.013746739366487383,-0.003514153530267238,0.09641506086408513,0.06206921505716563,0.02922135785073569,0.0045922922325566246,-0.01582069370754457,-0.025738102152500435
105,-0.031177869084867537,-0.00930360439306007,0.015138842521837495,0.021460328523649267,-0.019204572839445315,0.0007349506667589751,0.09517409528341961,0.059603553105364526,0.032038245154985545,0.007904434483518519,-0.01294436862165435,-0.021771605978850257
106,-0.0313013567647414,-0.009156845100984874,0.019858398192235498,0.01952910308665425,-0.02620816445808736,0.004709378317133159,0.09250344242462577,0.05766872043621059,0.030879467485554712,0.010899706190790552,-0.0076902431278226616,-0.019445618824884887
107,-0.024776649172219712,-0.008933888154193728,0.022430687036902305,0.01742068898858491,-0.023055181252021766,0.00405287344298951,0.09036875597724559,0.059137634480055545,0.02871051992812355,0.013214389732379293,-0.004451925575680388,-0.0168421380165334
108,-0.01568899862078928,-0.003819063342097362,0.023239509011819856,0.008712289338402818,-0.02123268384662439,0.006810898558673027,0.09013173029902621,0.06131847322021174,0.027259462059263894,0.013759641114708315,-0.003962638257862021,-0.014286516682670905
109,-0.019142405004599964,0.0003557107778403429,0.016745030304729035,0.007483782616425641,-0.018177075894357568,0.004688505576595541,0.09367131969583917,0.06522577744324762,0.028026795150667458,0.011334485811988922,-0.005435406776997435,-0.012886615487231246
110,-0.024176703629813005,-0.005013888706727906,0.008458641508680252,0.012165908521997278,-0.016310732675431143,-0.003909534281261069,0.09988464201469349,0.06995382567283259,0.026075699876142486,0.0063570218259044325,-0.005968168750469294,-0.01713140432824615
111,-0.021080065507039242,-0.01386837181376015,0.00038894713126885055,0.012994931742653138,-0.013576680049268978,-0.011258776613089385,0.10247473706076424,0.07303953755462231,0.029791157383404116,0.003959211066155349,-0.010550135146261824,-0.01765774319999678
112,-0.017289367126725626,-0.01400774804439434,0.005034948886476638,0.015669179926993234,-0.014402528891573674,-0.007692317429229344,0.10124778648302438,0.07625496827815237,0.03306941198779461,0.006578745271735652,-0.00741822741864738,-0.019074528266743378
113,-0.01905634170869343,-0.01101464739532811,0.010533389379980806,0.016472570677337452,-0.015632957171198746,-0.002334139419065316,0.10146840223308234,0.07493240876655943,0.03615467810939567,0.010365896800863618,-0.0054300438912393,-0.021240279508013625
114,-0.021478324365471323,-0.013167746712069228,0.01206840938275528,0.019082355642605412,-0.014956706717668945,-0.001802436146888766,0.10190827095081817,0.07328195796624751,0.039129105362946615,0.015781581147156918,-0.0034348957799142793,-0.02228285006222836
115,-0.026024477017557595,-0.006179466428523538,0.013863689002816587,0.01666739204841881,-0.0224444843937985,0.004246064468020193,0.10017446139734565,0.07334884342879125,0.04090133604018038,0.021238584754826872,-0.0028870801439166704,-0.018070739599057146
116,-0.025595942384132982,-0.0013012944535106229,0.021286857205872395,0.01546989878100644,-0.023266630742528327,0.006016810826720523,0.09682316129447424,0.07180883953601713,0.039783162740055444,0.022445639012730126,-0.0019663624321675927,-0.013789585972706471
117,-0.018965702893642845,0.00025832003054711283,0.019207444125865065,0.011919048273548002,-0.020920493466673323,0.007956716513115775,0.09384658910620947,0.07058098305951421,0.03626071612940277,0.020469823333983155,-0.0011564499397924977,-0.01033819468965877
118,-0.012831598217354568,0.004217226632995497,0.022255917173680084,0.00815272805081773,-0.019296096545579476,0.012317892799783856,0.09393482114711049,0.0702572013391767,0.03438957424363323,0.01790508044432951,-0.0005741045406476436,-0.007812893501901626
119,-0.01618991078143309,0.009105425115638858,0.02356378417567409,0.006621086972342347,-0.018497364798773737,0.015415925542102598,0.09836704135355967,0.07818800644496873,0.03412196852323714,0.019181437574934693,0.000988749543478197,-0.0073781634397452195
120,-0.013836697451740699,0.004652003738677279,0.01677605603728468,0.01055612980642685,-0.01638250759304332,0.0098048040685594,0.10371537599809585,0.0822133482857644,0.036283468502630783,0.019602228490732482,0.002546444750094974,-0.006154784025499786
121,-0.0197005620924299,-0.006014916532043318,0.011574477215420523,0.013352153016562774,-0.016927109958435188,0.001172870809517501,0.10420679099077579,0.08142018961331124,0.0401200514419275,0.01585550406997741,0.0010404897804853555,-0.0073311885476911726
122,-0.020467553090886454,-0.011832608016972536,0.01611648567544731,0.015311852557372874,-0.018916111861116663,3.219660583760487e-05,0.10224697108734163,0.08873384893947137,0.04292957397102637,0.015585904028094254,-0.003980101067317825,-0.012270839145534687
123,-0.017920179656224892,-0.009396110221622275,0.016420675615264856,0.010535724858327381,-0.019776209361996623,0.0020804713069309784,0.10242380395619394,0.08983684377415321,0.046433585160081906,0.01603378391948798,-0.005537858029756364,-0.01335132024299781
124,-0.02149909918117295,-0.0025662210726876966,0.01574433560148663,0.008700884311641371,-0.02560181483924008,0.00416663905262914,0.10089136410644187,0.0836080151899117,0.04498658557392239,0.02088234121563893,-0.0024512678520606096,-0.012459092129794624
125,-0.020049064485909745,0.0027176648362023607,0.019591770999338468,0.005502879715337403,-0.02534649232673719,0.0056268254932869115,0.10127946189557702,0.08064135894505892,0.042651730115724554,0.025372216684125457,0.0024974799769491504,-0.010202909435147185
126,-0.01599947482953513,0.0045286065320770015,0.02583276652316366,0.004877988559093577,-0.028899980331454612,0.009516895692552462,0.09806615790832016,0.07944041639333432,0.040148133835437694,0.02554794702540516,0.005507794749706467,-0.008806720830806865
127,-0.011319755902382243,0.004088719124740582,0.026994840532328583,0.003941514651308334,-0.022495293956893793,0.011730415514084795,0.0931598552541465,0.0786075615133196,0.039223612880823884,0.024415397895825086,0.004578110958335949,-0.007312055325317285
128,-0.007295691689717287,0.004803653995352352,0.02058557769302765,-0.0011146436810995537,-0.01866762164410947,0.01020262766918277,0.09163348796988802,0.07974278999574111,0.03711969809611437,0.023254012902837864,0.0024284085214981363,-0.006831851897168874
129,-0.0048570119940934825,0.0002075136492015496,0.0212436321007249,-0.0006630970856891898,-0.020226318388081706,0.011308321926076273,0.09383742143896431,0.08584483876332752,0.034593163864962195,0.0222674568400372,0.0011894574974840588,-0.003968139674181886
130,-0.012021918517848302,-0.0014629284321847728,0.02003194482163887,0.0032685921495678658,-0.02071115724356356,0.008365829091173178,0.09668629155175792,0.08755701005194441,0.037483660738114516,0.021729786056758703,0.0006079867786675311,-0.004378257357300019
131,-0.017661684200113163,7.267625103843031e-05,0.011545709016445518,0.0065211513833297804,-0.01792480425882141,0.003401075044692793,0.09930820827835085,0.09186218088472017,0.039854698617870055,0.021302020221070726,0.0003468798548776561,-0.0065380953114643064
132,-0.017843593129917717,0.0036991999275155715,0.011120563771270997,0.008513517749535477,-0.017165080501918548,0.002145863963457127,0.10166688296207507,0.09716276240444716,0.046120655397461074,0.02277566832186761,0.0018025078506309425,-0.005410441671177255
133,-0.014506541289003205,0.00514184960449106,0.015937646092061594,0.009881070740619346,-0.0213753419754822,0.004621795584809571,0.10462152638549604,0.09972712369700534,0.053412835257606456,0.02734882244708997,0.005587242961977698,-0.003454678958703869
134,-0.010778956258830342,0.006047156866611315,0.01707520872258937,0.007139520927092833,-0.015747677791977145,0.009520847496956874,0.10633855254572613,0.10042330127162691,0.05922201190534197,0.03122346209027835,0.00976859190779078,-0.0011883548824159346
135,-0.010745672543075287,0.007554102162872448,0.0179738510823811,0.0033501768953530277,-0.0168895385858268,0.010859364721214848,0.10370107137622281,0.0955269618718824,0.05647040555629851,0.032107881614081374,0.011749339468569958,0.0009249785801868568
136,-0.013562276085367846,0.011816739037270568,0.01776003002703285,0.0012008524629384988,-0.010580227957246616,0.009121654799180447,0.10056322404859286,0.0883943905367211,0.05242383376404808,0.03478611092919736,0.01484263564759735,0.0023011892036801443
137,-0.01036611878631007,0.01568354288670122,0.018181055624351114,0.001325499012440768,-0.015010323014922507,0.007514982289724314,0.09802673165512582,0.08765499319360343,0.050968606586201864,0.03591194193742339,0.015827788124241692,0.0017298559430654406
138,-0.01221829502271091,0.012874226883860983,0.014876547911347496,0.002294502563502391,-0.019582551651251313,0.004985545696304681,0.09455390876853595,0.09490046977284092,0.04986362300405324,0.03648852945421078,0.01813836113982606,0.00497134097601766
139,-0.0060138708731904515,0.004550828322380903,0.013355095321917093,0.001987727682368084,-0.015050530727747098,0.002798465285080819,0.09354988284617022,0.10208281971053834,0.046674813661384026,0.033614791736474935,0.01841150377095696,0.005723634316548175
140,-0.0010750181820016295,0.002023623288404785,0.014319222466631398,9.111777217672354e-05,-0.010247186062461278,0.004263938945556321,0.0948931700329276,0.10474018156037401,0.045394602432519776,0.029381649726592324,0.014361513817590078,0.0047354152572151725
141,0.00034058927667387703,0.006332696370333337,0.010036342620104667,-0.002878225087066092,-0.01386299527957658,0.003484006314749503,0.09826815932491634,0.10695431947956385,0.05082796776732795,0.03205389439793382,0.012983658868271596,0.004325380462258617
142,-0.004695220629581883,0.009001179950240173,0.011820284879916805,0.00015767268824871256,-0.011705326705337981,0.005776708711897999,0.10342327710687474,0.11079712935859704,0.0563519168622339,0.03815667940703059,0.015450465620530075,0.0035086451849345515
143,-0.011114470079002372,0.006462002012139884,0.0077879161993413045,0.004833587452264778,-0.014337780103662004,0.005378004829935511,0.10679817344385278,0.11200694486577939,0.06072225998919155,0.0439141353681848,0.018939469333829402,0.0035772762093993493
144,-0.015023140122073304,0.003823920717565349,0.006139615111413635,0.005460419666327064,-0.012473621120336342,0.004063088810935623,0.1040547084408622,0.10829621144515988,0.06464645822740257,0.04293098750872922,0.022822483735815535,0.007952556064172937
145,-0.00443230765529954,0.006369637099343519,0.00615381478296771,0.0032086850233475628,-0.012141993351647888,0.00534304683760177,0.09574220703362835,0.10374968302669679,0.06104304454797624,0.041399769943884224,0.023897835742255943,0.0102726214033843
146,-0.0006222545747205412,0.009575381028875025,0.008578223721469222,-0.0028674752753817465,-0.008428334782600539,0.007142469685898237,0.09083264760457557,0.10326163977751093,0.055752671784357624,0.041719011285267234,0.026281275168771694,0.013042170605105888
147,0.0020083541770387105,0.00519781064634158,0.005490666669638178,-0.0021676801021013915,-0.00254087010238474,0.00327916057777985,0.08713649999390694,0.10468560491010792,0.05186349800473501,0.045658337039259915,0.028145229978224863,0.013857750585075199
148,0.0012050960058613037,0.0027924501418274007,0.00042421451239308197,-0.001871893007773972,-0.0048372645346769425,-3.30930846639617e-05,0.08792477858391695,0.10502610684308344,0.05187984269434212,0.04599523165537959,0.02613125021510618,0.012106821800715657
149,-0.00044134458037283983,0.0054126000612749504,0.0012224959527577482,-0.0005948382995278785,-0.0018342013760351827,0.0023988689034624357,0.09506331635741733,0.10635849328207919,0.053792783469727753,0.045551116344761715,0.026069872425761968,0.010882289326999695
150,0.005242389845176051,0.008182359067171614,0.0012084175005977454,-0.002199815146132031,-0.0021872071955170574,0.0037767091803307777,0.09884551310694392,0.11036440813609924,0.05718342078535217,0.04554702844440151,0.02391674198103081,0.014783178795558592
151,0.003316120203063877,0.013700434201079692,0.0002124936964436313,-0.008798491461807273,-0.004399974245745456,0.00762241722417507,0.09658023397521054,0.11566652574913291,0.06102306355632624,0.045511420678492905,0.026722851115047432,0.01319199836951352
152,0.006734831840036107,0.012207387538167204,-0.002041783209235523,-0.009892545979752814,-0.0013835261338254433,0.007533515664018332,0.09364940333662755,0.12365612155497302,0.0663400909942117,0.04698865306589766,0.032549462390686554,0.017217270206881383
153,0.006282546203073974,0.012932586792919,0.0004581343687550237,-0.007282337105276116,-0.000829803301229861,0.006933507456158145,0.09464768281179797,0.128187051349067,0.06903179613131216,0.04873078182952977,0.0375398978191114,0.022464629755392703
154,0.004984068325677271,0.011278359800134728,0.004562739753059776,-0.004099938625681383,-0.002034848382672344,0.0070018706730433635,0.0919314055628728,0.12503580096931827,0.07010327143540741,0.05429181021821218,0.03502331986484624,0.022710263825312292
155,0.0038022642769724724,0.008044787385315758,0.007982927834551604,-0.004502926771842771,-0.003934455036994244,0.008203841910755749,0.08632909600827926,0.1220157381945153,0.0670838792086516,0.0599933281720296,0.036854180665213135,0.022816689192999874
156,0.008433447358609208,0.011833978558730335,0.009918842046355186,-0.007820699332551041,-0.0018188281924036362,0.010388116676759993,0.0843724250771784,0.12500004328509556,0.06533086243723481,0.061352223078592796,0.04482937237412626,0.02993200974821252
157,0.010671642335508597,0.014391443969935774,0.008300813838708286,-0.00784869050446042,-0.0008319344393461839,0.011305925212377879,0.08040808820061893,0.12602798735362236,0.06691730763536183,0.06261019940410081,0.048379810239579886,0.03412679217570295
158,0.013865027459829588,0.0196162755977796,0.002523664298827789,-0.013279887152952169,0.005342566790832505,0.010151290844749779,0.07868610480603752,0.12915747235739647,0.0700501844230716,0.06627526087974536,0.05340628000594981,0.03570432462332704
159,0.014398024718269597,0.017671396042489667,-0.0025109986560481728,-0.00953826286995589,0.010196147133734824,0.00976750845455759,0.0817955260475145,0.13549771979581252,0.07012223432435041,0.06677281668757593,0.05410172896257392,0.03938693484206485
160,0.014514198913100363,0.014319723835373364,0.0005154227421850805,-0.01275314498988161,0.009837937648437328,0.011634299367390626,0.08551845888491455,0.1425444590257551,0.06954508906792792,0.06543273601772148,0.05455057397384479,0.042267856905354784
161,0.012865611954790551,0.016060337091595555,0.002968780897172502,-0.012678187239196646,0.006444881031383371,0.00490555735602811,0.08544045705971828,0.14437448254807786,0.0682184143500833,0.06426575812308315,0.05660709191922952,0.042344366722027814
162,0.010219907298627793,0.014859366180650415,-0.0017680253427341981,-0.009982713222004403,0.010020382148288414,0.00839157173986272,0.08054028780481648,0.14558256139638012,0.07336202649992031,0.06613443745465825,0.05732554373712298,0.041645992840720306
163,0.010504561494864237,0.01650580951225609,-0.0004813191542522178,-0.012939765178181885,0.010571871610842703,0.006743709655434536,0.08226854213273699,0.14910796670012103,0.07768327769123194,0.07132477719649,0.06117296232296768,0.04503193325468986
164,0.01431751800094566,0.016751353893307765,0.003310501451277429,-0.019066792954373767,0.007846256656504184,0.009112248568738731,0.07929896222197169,0.1520262969218542,0.07937520355992088,0.07872158975654373,0.0654077411040294,0.049366863136981985
165,0.018731560066977584,0.018474806289812983,0.004257414868673034,-0.019444132118827197,0.002647973375410159,0.013231056118382723,0.07294246480373831,0.1538771421201476,0.08209333236163623,0.0855869439257907,0.06996088688284344,0.05539661689200818
166,0.0266755436146158,0.024144053785497843,0.004474041533874111,-0.019316127535905246,0.008928455267238605,0.015264538487143618,0.07170153770982324,0.1525230388082739,0.08059144575115436,0.0891948154761561,0.07385395169941975,0.058957567737203134
167,0.03259924930553997,0.0251386046092772,-0.00039303206938146214,-0.02243742103236929,0.01595902650825371,0.014574476408418637,0.0714527444679458,0.15257004521628292,0.07885597401282621,0.09123814896573704,0.07799830172969774,0.06238107378130339
168,0.032061051789268664,0.028383633388864567,-0.004952960025502601,-0.025259133666540524,0.014855152673737378,0.013556763097678896,0.0722950944857228,0.1582036720047947,0.08025503713641197,0.09390560070795087,0.08267328789640824,0.0660439943403314
169,0.03131443513960232,0.0306362946454993,-0.006584347316012877,-0.025084582207271673,0.015711757916965996,0.011928577360954795,0.07171392437762467,0.16586284987775454,0.08266813505673745,0.09602374111295295,0.08515973371740868,0.06964457947572653
170,0.030394325244142095,0.02830078660949662,-0.0036575597643587815,-0.02684766438836923,0.01626006755915553,0.011486699614857253,0.070380198471102,0.17155112495157462,0.08582176403497001,0.09595736857277892,0.08680032419770384,0.0725160750245692
171,0.029470905952542238,0.023798562120342814,-0.0066145504738826895,-0.025385660290313493,0.01736126990453908,0.0074083425926731354,0.0700213373018479,0.17426094156291377,0.08953534678969113,0.09734449912762672,0.09138253250254205,0.07511166071704312
172,0.03368049837630669,0.023051305360166502,-0.006532936708132491,-0.02488657752815565,0.022530992270647594,0.0073405052224631145,0.07023410583576789,0.1814275365138945,0.0930857009502082,0.10362352594506896,0.09535719256101152,0.08066055950115787
173,0.03310714215597953,0.024938249817344948,-0.004859660695048149,-0.02596358652965442,0.023213541783248994,0.009133966733025805,0.06847231746629498,0.18633481552480952,0.0960077162736521,0.11143701379167115,0.09865353935101388,0.08251435763671824
174,0.042007895052764685,0.030959844539523135,-0.00713813779066321,-0.03132432733777808,0.025138132356094918,0.01421156491275183,0.06517274314487798,0.19169495788996227,0.10113726938101757,0.11799723346151039,0.10622192693857394,0.08844531959022993
175,0.05014972796144514,0.04302511990005721,-0.011222070963771065,-0.03825498625258903,0.025367572887901334,0.01598311199753092,0.06295684680781777,0.19541973001423457,0.10404843378252575,0.1241989714758231,0.115477495942842,0.09903638842882764
176,0.050540179573729485,0.044850984010112574,-0.012021263195794664,-0.04496223183642713,0.0253670782928208,0.014901656687769752,0.05892483531312825,0.19720413259074937,0.10398826352997699,0.12813737244627948,0.1249877477711266,0.1077653081538339
177,0.04939370416675425,0.04727952212280154,-0.013050596691275045,-0.047343362673942985,0.030666547100127207,0.014380751341081459,0.05287305434476552,0.20043631890035266,0.10426170118065947,0.1315043043232316,0.12870658150038544,0.11171914514211606
178,0.053685359869020705,0.044402142245198103,-0.015559237276780482,-0.050223505978841246,0.035554872330815016,0.015359804945080258,0.050823188857360736,0.20561762752122617,0.1069036144184355,0.13523276674545967,0.13072648654330704,0.1139395771355543
179,0.06232132435533419,0.048013908026356765,-0.01713184819155368,-0.0559691440477838,0.04035093803505712,0.01780268724907011,0.05222050033516628,0.20888588968802507,0.10929849230132271,0.1368298248531521,0.13519237013891663,0.12039195347879841
180,0.06933120521680432,0.04997734800541756,-0.016020137756716214,-0.057047726025929044,0.043172428113445294,0.016196666842583515,0.05082193667001412,0.2213793344775659,0.11138771692802787,0.1412801789286146,0.1430984679369009,0.12941025089323996
181,0.06495264696551,0.0473622003240738,-0.01897709812715507,-0.05516736935168899,0.04148582578336597,0.015807277845181763,0.04971569217161925,0.2272988634857333,0.117516827571957,0.1463860130775583,0.14766452285273468,0.13628592894760755
182,0.06664599093898449,0.04724285736667819,-0.01882828740365152,-0.052910751478924226,0.04358937670386945,0.017074666676236205,0.04810262019571491,0.2320620064992971,0.12090085078366636,0.15177453237481148,0.1569474613675647,0.14029255765303317
183,0.07557743848057676,0.05398370736303183,-0.01569004357042161,-0.05637818867746376,0.04031646322577938,0.016235515588832728,0.04296293842911144,0.2381111954925317,0.12515514893355667,0.15849701253287296,0.16596375517089024,0.14675742727517188
184,0.08167701752367271,0.06397204433670375,-0.01691237058299108,-0.06345786978871833,0.0389956055470457,0.016251199951508817,0.039891739481229295,0.2407907787519512,0.13313626745404686,0.16877911884433627,0.17593440997864213,0.15759483016171558
185,0.08256968680800995,0.06984505301835328,-0.023562719787933097,-0.06890115106730371,0.04895894788818032,0.021754483532999337,0.03425928743994467,0.2456241509769277,0.1365519142160482,0.1792155966564663,0.1845746625419642,0.1648983088701001
186,0.08587950901838677,0.07305652605470922,-0.021912580839433267,-0.07293562116259651,0.052073542561690236,0.028917981592018138,0.030337616827791916,0.24569183475768444,0.13427620966191653,0.18610414394797814,0.19546232021784427,0.1731366775472625
187,0.09011671166807332,0.07665301410654918,-0.022494880995122014,-0.0786928797773482,0.05505112794866369,0.03121691923434327,0.022953651294319907,0.2511316117906349,0.1307626292145322,0.19244359736383104,0.2028520711263429,0.179484231516585
188,0.09775695528889601,0.07816595826794656,-0.025262699798513137,-0.08387501428269384,0.061984643337440144,0.031118230670371984,0.022031875974711138,0.2547711492142546,0.13309884789860332,0.199640990306352,0.20812833908386386,0.1880008731852156
189,0.10026524541834017,0.07759932449601413,-0.0243974726437238,-0.08419875723162835,0.06416833683613632,0.02876653719120051,0.02122667076885077,0.2624339528848309,0.14021498321662906,0.20467190139758173,0.21893933094086476,0.19962574466981403
190,0.10887939673139452,0.07967650287612468,-0.030934445576667587,-0.08984821273995956,0.06883079030550042,0.027352462203683127,0.019084657720431778,0.2733540115679574,0.14392250078405566,0.20847726267654929,0.22607838054121965,0.20756677484113478
191,0.11377947091605924,0.08290699533146043,-0.03632194627548713,-0.0937207879406864,0.07617264312019237,0.027449664950237034,0.012663549144953629,0.2813145930573023,0.14559016166636582,0.21455192634137735,0.2326920335736391,0.21512296496904726
192,0.11665467405381623,0.09162524216745785,-0.03475598628669629,-0.10284550975978614,0.07739862210256201,0.02947931056809476,0.009558817204188788,0.28449402912162103,0.15179324171831113,0.2230379581849162,0.24084552813836674,0.22517751771773054
193,0.1276360853731244,0.0970257664558376,-0.025741326316105824,-0.10756944599780428,0.08229397770682231,0.033459636041554226,0.0038885516180204444,0.2879653096375675,0.15600669848556353,0.23220472791245853,0.2491002565270003,0.23429203592701825
194,0.1350390616225934,0.10226389818499884,-0.021040741215539355,-0.110947932396404,0.08251297094608936,0.03823728576629937,-0.0022833077153604706,0.2940981857243126,0.15717254764616648,0.23852506324930542,0.2597037027629814,0.239472517016114
195,0.13759918543146468,0.10723237633193916,-0.027039021216492536,-0.11549179657245633,0.08183876733791773,0.03742742838087275,-0.006534711451444676,0.2942690169984323,0.1574060450827074,0.24463484969939533,0.2683670600982217,0.24510810144622364
196,0.1360721497380963,0.11305284312967143,-0.03219465025971808,-0.11822159786440097,0.08511085142953352,0.03856054998663865,-0.015945178624762753,0.29462117233733376,0.1628529767660606,0.25045547736095053,0.2766981734211671,0.25544257602676607
197,0.14874133379277624,0.12110647849727132,-0.03202996762399082,-0.1293009146258923,0.09099954519035885,0.03991772665431833,-0.01926237941759399,0.2979030452674348,0.16673558674672745,0.25516472648384714,0.2853677391123144,0.268299240568576
198,0.15730003411962495,0.12747422149353962,-0.03313549054700594,-0.13739939608858115,0.09453479179496437,0.04585478358013102,-0.02593224664979956,0.30203206311904707,0.16539983131158295,0.26399505264664574,0.2951990287753676,0.28115589467333924
199,0.15726626413108577,0.13223282726680838,-0.03256843584821092,-0.14184377012445773,0.09543400621958623,0.04945011110481579,-0.02837365402527663,0.3076087272991452,0.1620214005891102,0.2700232318244381,0.30550346897205666,0.29401254978868513
200,0.1608101852911863,0.1338704100118351,-0.030113603928127383,-0.14633699968353614,0.09777128218421506,0.0497942292176115,-0.02753830383893013,0.31460443879960104,0.16973770320018527,0.278327069396194,0.31400427284965954,0.30462698485542833
201,0.16647874461092962,0.13314873701177915,-0.02789971393719433,-0.14862798778478623,0.10031435381839816,0.05065554116390942,-0.0313334804172049,0.31991911415190394,0.17479717055138783,0.2802430498836193,0.32077327405380435,0.3102744507018367
202,0.17091379842630708,0.13810027793872307,-0.030028527881427028,-0.15394161785713675,0.10165330446911383,0.05409784146257914,-0.03723373241695093,0.3203071525749697,0.174749045587762,0.2861120705960334,0.3280994887515076,0.31405378836672254
203,0.17825498046876104,0.14321782299934335,-0.03345359334352973,-0.15906883000646047,0.1060826353506397,0.05607880258075551,-0.04457975829442827,0.3206444555545503,0.17716633361761513,0.2934242435716496,0.3370019427039019,0.3206055199478384
204,0.18702044879486304,0.15210362073308276,-0.03583378237498653,-0.16899661443859457,0.1060421827680199,0.05680894137139851,-0.05018672870474619,0.32137847754866916,0.18111920194340492,0.30386118359821657,0.3478972514690199,0.3289264823932475
205,0.19133249287104526,0.15794912443641718,-0.03399014266862046,-0.17463777707205558,0.11158518692130223,0.061518837710424976,-0.05739281141935856,0.32200765227673267,0.18368288511318556,0.308273290999231,0.35826878987738864,0.3397825094122842
206,0.19175115596499215,0.16019826817386487,-0.031971954664033686,-0.17688120281995082,0.11186438198067365,0.06492967759029886,-0.06382523753190483,0.3215038970014547,0.186304942256077,0.3112292761501669,0.3588165318360801,0.3467093383825047
207,0.19454865467883123,0.1654590653846814,-0.030178686161251536,-0.17833367171372974,0.11189956009390253,0.06765475845770098,-0.06437231329277879,0.32147372534555574,0.18529558828801818,0.3139035627610675,0.3660675165485575,0.3574671327601894
208,0.19799713386718507,0.16869354009765264,-0.03231948372522949,-0.1833403313165525,0.11494693466526189,0.06718335189412608,-0.070377234963787,0.3202622704311505,0.18028786958788046,0.31922526676056406,0.37483534097805143,0.3673178238597786
209,0.19901333523345432,0.16923212918070818,-0.032168610180313126,-0.18322938567861838,0.11792904016925584,0.0684431791817566,-0.07509173822734919,0.325716712601289,0.17813475458735736,0.32213797631444174,0.38035774607516293,0.3747570934675883
210,0.2044061545598622,0.17387640665726006,-0.03226129962399989,-0.18857586028318288,0.11956689763705901,0.07001491337129402,-0.07407432291701577,0.3306754866605963,0.1810653644724482,0.32533058563700756,0.38146121839519026,0.37783580581637427
211,0.2113680997313546,0.17649337650227903,-0.035618081766976756,-0.19395347421143244,0.12321299489358015,0.07006009476996841,-0.07452720036257547,0.3318977365250957,0.18299280502951867,0.326192511557129,0.38072957010146724,0.37620369242640134
212,0.21421505075676323,0.1778162865017169,-0.036370836655031547,-0.19584787561245767,0.12837044397088504,0.0699643323963813,-0.08216690794876577,0.3266776970474044,0.18320026589070376,0.32673981191152046,0.3875547313642454,0.3753690926489624
213,0.21513942226965344,0.1821544220708549,-0.03649311640959206,-0.1965626819616951,0.12816019949254265,0.06881248095281685,-0.09143561100050202,0.32452790096846224,0.18527622563204113,0.3314946548765948,0.39149197304532,0.38027655563979884
214,0.21559494051296044,0.18595558071834334,-0.033815185582759984,-0.19984311590146323,0.12187260526790779,0.07177565590610249,-0.09571971846814309,0.32426292800516404,0.18552851596482642,0.3329367503478598,0.39222436275929273,0.38314077605514696
215,0.22178336683772326,0.18798992534517517,-0.03392081242219771,-0.2017444792978949,0.12750109589109543,0.07769388324508823,-0.09642482802713173,0.3214356448718889,0.1857510341516417,0.3342729796543556,0.39879925534445365,0.3900364666387053
216,0.22152178493132027,0.19382926468298203,-0.03608425282422771,-0.2066643806871973,0.1317999465155159,0.07869679488484999,-0.09775987895927735,0.31947877084975385,0.18591733254961584,0.33726461497256854,0.40625610064848316,0.3980133844324797
217,0.22654268935558297,0.19598145286834587,-0.032900727391041856,-0.2090536135215329,0.1289495471159853,0.0806216836350981,-0.10104482895613626,0.3156303724693222,0.18655175455279463,0.34014562773873036,0.41245837011269126,0.4022643576020027
218,0.22546966999264095,0.1940845963129353,-0.02809460006984807,-0.2114178761247075,0.12319499151708622,0.0829112199433616,-0.10514078910960895,0.31028802467733657,0.18339705274109128,0.34097767483785985,0.4146970007789947,0.4070552929276189
219,0.2217622174297912,0.19798471040967747,-0.031403338914305724,-0.21438278734516775,0.1255066473235178,0.08333869589301698,-0.10740895945733991,0.30717007309186134,0.18435989764229593,0.33975476191956755,0.41490323691577924,0.4076776017995938
220,0.22246156795103006,0.20358831586421527,-0.030547081150935886,-0.21500316497915636,0.12459149125062127,0.08376497050572648,-0.10631491222253989,0.31013429577537666,0.18947260717844594,0.3389179828262107,0.4143637313596831,0.4060035140032776
221,0.22363298764525916,0.20613825954765227,-0.02497998841249501,-0.21453724585294798,0.12345474485866105,0.08484518568278654,-0.10411749737590006,0.3159591602471835,0.1959339269307666,0.33875200114003007,0.41368366264224926,0.4043728584873391
222,0.2266233471245085,0.20377348945484186,-0.03145488375419467,-0.21711237465341338,0.12940576274591237,0.08431841460514199,-0.10437175152298928,0.31999222116316656,0.19917807212094715,0.33604720429722673,0.4103706325136272,0.4032914467436837
223,0.2280088273171871,0.19789396807638085,-0.03184641096220404,-0.21293439004910572,0.1288514882911649,0.08210509945353457,-0.10731128701299414,0.3205750015959008,0.19883847321047424,0.3331544253388716,0.40439221518368185,0.40202778746359563
224,0.21850986039552175,0.19197996961435368,-0.025746543148204168,-0.20467949467955948,0.12334312326485297,0.08094058445234012,-0.10959687419573683,0.3124071187504904,0.198259496886259,0.3293289406369695,0.4023362558242383,0.3980573040165761
225,0.21443906918779124,0.18990723036236518,-0.023340419162233877,-0.2028915521048769,0.11927509901877693,0.08374612459831285,-0.10762166980445897,0.3073973835049998,0.19833468211492813,0.32960774567445417,0.40082242047747474,0.39420838482706033
226,0.21782299951049783,0.1959175109729523,-0.026507695512357723,-0.20476176252621728,0.1211969614263194,0.08549710637226816,-0.10367465250942748,0.3019861529713645,0.19846827096077405,0.3305273803776006,0.40035942563925664,0.3928292739316816
227,0.21547225333014833,0.19881361700175892,-0.024953967459154097,-0.2085841839380624,0.12279178932370474,0.08506841898216726,-0.09916183584780436,0.2971517590595869,0.1918317674991737,0.32881940135318755,0.3965402504456887,0.39021230373054155
228,0.2095320010304813,0.19786821101094365,-0.01794707482899683,-0.20531885144558915,0.11737857611683751,0.08599185490768532,-0.09590951521713234,0.2943607143745067,0.18692719233020808,0.3241742414893501,0.38876323918325717,0.38272130816507677
229,0.20412635324188738,0.19344223187835408,-0.019550754958828825,-0.2002249148202898,0.11017474110737843,0.08709282932343632,-0.09190392363772254,0.29186759377694355,0.1865118627453157,0.3168791943616998,0.37979484743556746,0.3713892493751272
230,0.19079416330773183,0.18609216106388007,-0.013571671799973631,-0.1878777418604276,0.10478156950190394,0.0868557198776272,-0.0838075392289134,0.2872204389412035,0.18827312065707733,0.30905849819671777,0.3703773139263063,0.3589825628578833
231,0.18758595617749219,0.1799583684170913,-0.016628522825699776,-0.18174207583004226,0.10250977363314637,0.08306407200709538,-0.0758882209873386,0.2845450217757829,0.18919608802392926,0.30099196911429865,0.3593954596436055,0.34756841342561184
232,0.185591696230186,0.16867261868210826,-0.016038295246065634,-0.17244326205427427,0.10102687140171221,0.0787829404964626,-0.07187489768227504,0.2799999570332467,0.1882104201388804,0.28984290657281603,0.34590329616188525,0.33305518332725775
233,0.17651677515007105,0.1584391231287557,-0.012945545519549424,-0.16642464302035093,0.09240390840902524,0.07007742172306702,-0.06881645114474509,0.27200460598543824,0.18559609847415579,0.2767910408282652,0.3304786617321699,0.31986688536744357
234,0.1670225689409406,0.15030748187634602,-0.007968344113249627,-0.15989062062169906,0.0901680628730438,0.07163005249910959,-0.06453178784131522,0.2622264154970836,0.1822990990109374,0.270793718863682,0.3158951639411545,0.3071742144241513
235,0.1577520232992535,0.1462725132050335,-0.01431045974167153,-0.15410779076590225,0.08352168332610638,0.07216551360890776,-0.058130942484702394,0.25023751603811684,0.17733770183486577,0.26086778766660645,0.30422467185404595,0.29423136765354957
236,0.14764713660606096,0.13561487489680304,-0.00787554948325934,-0.14479259736354416,0.07980477809645344,0.0699287445037549,-0.051093953902882405,0.23955508665843972,0.16900819520294694,0.24929180456366387,0.2919168247597093,0.28010153265235943
237,0.13772574095333007,0.13178894468741426,-0.004367107927383272,-0.1339871011856975,0.06779633960160578,0.06744470575237023,-0.043029874137245135,0.22732481945517155,0.15987925136695774,0.23954897180964185,0.2765778216275438,0.26393669582943846
238,0.12762235440938752,0.12704367590302107,0.0013138974999065602,-0.12461801772138774,0.06347398844345206,0.06331711344750823,-0.03726852591207669,0.21480210637136032,0.15382055876035572,0.22735363636569986,0.2629138354232121,0.2492955729102881
239,0.11904639503092689,0.122684950433504,-0.000828310055047507,-0.11827153298883494,0.0595222842443453,0.057319859117783416,-0.03228296059743389,0.2032372507243161,0.14816455826213312,0.21836172385031014,0.24797735355631012,0.23499869763009526
240,0.1129310956133049,0.11163051306818272,-0.0003105272416678885,-0.1106290139894227,0.05799185411732461,0.05429987086236203,-0.025376869224375816,0.19293191052146197,0.13921074022942587,0.20519037568365503,0.22977760747030163,0.2170679583713494
241,0.10574791217646479,0.10341407252517326,-0.005066267821321286,-0.10355412099648664,0.05852415121250885,0.048769672006035686,-0.020047362173657324,0.1832308299984279,0.13042609590011742,0.1927242804504106,0.21245357804400256,0.20011550939872044
242,0.10582620169043289,0.09753605841646273,-0.007655768117864314,-0.09813939156763438,0.05713123821729898,0.04363532582130814,-0.018607741726819706,0.1724676965530345,0.12494521565740548,0.17937779516354982,0.19533830626146648,0.18758322811364345
243,0.09356745881514211,0.08821260248786386,-0.004835579044570134,-0.09019477584711989,0.047097483591213005,0.04189524712014594,-0.01594150975793128,0.16039160729876592,0.12159232009487325,0.16577229054973266,0.17986110152678353,0.17501679685581395
244,0.0797692654332332,0.08397177726223745,-0.0008908172143304791,-0.08201752440023198,0.03686059843640767,0.03986243661271566,-0.010741780195782702,0.14631270648145744,0.12007620863593761,0.156308436005718,0.16882914184649592,0.16285611524124657
245,0.07193752103057567,0.07629037919488846,0.0011762614439439472,-0.07468975575617698,0.03432534761164757,0.035693832214683294,-0.006381636121493472,0.13361759783352864,0.11013458248937388,0.14619664615641606,0.1572312334601267,0.15046121927414016
246,0.07397110495953277,0.06695781772564868,0.002222658486771714,-0.06989904101721242,0.03290075390037694,0.03313905569614032,-0.0031126450021986846,0.12201893153946336,0.0991539907249321,0.13593351003014212,0.14589614752858698,0.13839364187659164
247,0.07190723210721445,0.05973952378778668,-0.0026466077739915692,-0.059631631488705275,0.03568375887012349,0.02762777890334369,-0.00011209774153076238,0.11061413367587125,0.09363175769435386,0.12686654372815367,0.13629157292955868,0.12969147079345192
248,0.06264959100260141,0.047849499216031245,-0.007254305772026128,-0.05556645147949961,0.03448570321596063,0.019381792740840682,-0.00618028990379893,0.10498217376664393,0.08095268038728035,0.11591708004954349,0.12441567581315907,0.11604862446079248
249,0.05192901768264864,0.046199211388250415,-0.00841933544341961,-0.05100175032914187,0.03194901869571852,0.01739577581731385,-0.0023140851957415606,0.09800154792969845,0.07077899609498421,0.10418505149375659,0.1113233667464718,0.10552685200149568
250,0.049195382541699625,0.04131907427996677,-0.009971279041076099,-0.04499862469770616,0.028859849854072913,0.014630111432612851,0.006980308727162873,0.0886047470010618,0.0643414591046255,0.08641054062417072,0.09887783870072411,0.08939978422362269
251,0.048833728476116035,0.03906710947617944,-0.012480062669831793,-0.04338499865076943,0.032194507038294934,0.011887390984293622,0.010389443062621524,0.07782351744917565,0.058638932604130056,0.07377280706226771,0.08734652285183346,0.07674559005700923
252,0.046393113376896764,0.03645899513100024,-0.012114805625783574,-0.04086063392857023,0.030769135381541045,0.010357258161418805,0.007873174327597886,0.06679207385029928,0.0527604569946795,0.06933137863194719,0.07670596621140552,0.06833505752225655
253,0.03820504866757807,0.03229851491041164,-0.008499608628573178,-0.03511712303862111,0.02270695937454952,0.010980774037365406,0.006508988279187899,0.05719626252117891,0.04933914074325345,0.06390667800735483,0.07050814727560051,0.06426059061503861
254,0.02683352052963635,0.027198032437029028,-0.006469443564754909,-0.025301998438362408,0.016306177817188062,0.011536739813946609,0.007760463690918162,0.04967825865122747,0.04802870989954136,0.06187364543389412,0.0679463954490585,0.056945703876380885
255,0.02762286631818743,0.023697660651051146,-0.00708516514580424,-0.02373917796025211,0.020308409736747923,0.009817437360033337,0.008757893716356529,0.042534338028706396,0.04680347135956363,0.057662879187307996,0.06164086005040137,0.052789237781907916
256,0.030053850725151297,0.024711211742539967,-0.008017701400452071,-0.024967273964325586,0.02114944946308875,0.009749668359853284,0.00953817416473347,0.03513302674279884,0.038882526138043626,0.050590663324687236,0.056770873017776856,0.051472536650390914
257,0.02602752195853354,0.022227796455040014,-0.009836025425120725,-0.0233430054869272,0.021114035957021014,0.007383225425015552,0.010668963799425488,0.029104154086999227,0.0299850978888725,0.044726635662488474,0.05323771083249913,0.04740172559637973
258,0.024747402996688005,0.018092891794430424,-0.010653318677459441,-0.01892218435415502,0.015116225896167639,0.0036450517268114156,0.010635783893573149,0.024901653595747635,0.024754006497292806,0.04255143978847224,0.04882902510538032,0.04458849898303915
259,0.022755814062779253,0.014897135718828435,-0.010570186544961254,-0.014854414687956874,0.015167188787758617,0.002176480016913307,0.011504175467106359,0.021773766461414282,0.022536251503088318,0.037750526990844004,0.0443718262295462,0.037955453779366446
260,0.018195481180752475,0.01120683986164608,-0.00997623592802459,-0.0135649650874267,0.01777723463570877,0.002649763540747428,0.015974090830197542,0.019801523204713605,0.021947263391801766,0.03243237850585633,0.036349043008460924,0.031366026611637995
261,0.014298573478322613,0.007079274207313338,-0.008823367871101669,-0.010548638445786246,0.010123446458487586,-0.0026651262732400862,0.018896246021109935,0.0181032766186581,0.017701652582643352,0.030737729066608016,0.030399770537936955,0.026594646722972393
262,0.012550347620547053,0.00422814493980238,-0.009975607528677932,-0.007862899391528707,0.010913632787850982,-0.005595754751485223,0.017394543655197072,0.016082595479477622,0.019415459346597885,0.026915081398099408,0.025316228067773942,0.02473644177523058
263,0.01581950182136562,0.0028687871967307387,-0.014682266346032626,-0.00877872418366984,0.014174753235168458,-0.0068254186782048185,0.015436486392687857,0.01689410506512982,0.02082753703247501,0.02213422601716361,0.023168766379713383,0.020836104848190935
264,0.01964880693932722,0.000662940386857911,-0.021970880699098295,-0.009459146447442326,0.015835889968841475,-0.00931037215244594,0.015592178127763395,0.018575353770447934,0.019851968829718722,0.018724684035899695,0.021780303767845715,0.0183427963132788
265,0.018858390908013778,-0.0005660684088096835,-0.02278561969158898,-0.010214839856063288,0.020363356669229084,-0.011409720610155561,0.01644873633881848,0.01946308854330181,0.017457376572978967,0.02180510415379553,0.023053560022422082,0.017308981948595918
266,0.01540302199011933,-0.0019137364693086432,-0.01835479130553295,-0.006179222435027,0.01539847845813034,-0.006049198018571672,0.018414762157649454,0.016199896851644524,0.014616918718716863,0.020492541009029915,0.02420559439683558,0.01761199797688718
267,0.014166012535653631,0.00022146004190350121,-0.013225630816442782,-0.005525207520041627,0.013844927526870138,-0.008646001190176139,0.0172653239956245,0.010361335564347193,0.016071091316810164,0.017113492580740464,0.02194432532751906,0.017253575415972628
268,0.016684748049849984,-0.0033213406438215264,-0.015450414144405636,-0.007343632856991841,0.014094380185593346,-0.011427828033831413,0.013972028632972013,0.0070406116540672695,0.00981280592448968,0.01490771604397768,0.01972099757925948,0.016571770085321104
269,0.019552186954410997,-0.0020153328959739807,-0.015750149327245545,-0.009529614177311456,0.016583051881220192,-0.010988057190123671,0.014108968380522873,0.004877215544310472,0.007536762459897591,0.012604879131438568,0.018340734943641027,0.01262525873661939
270,0.015186563283566745,-0.0036061196819732223,-0.01953893880553669,-0.006546974227387089,0.016779268136721544,-0.01298385628800928,0.012268823421926867,0.007661269864612056,0.004712968753369375,0.012908892989569175,0.013508285576202907,0.00866419219655562
271,0.015197924280884996,-0.0062142366938932325,-0.01737064286757121,-0.004859505719483518,0.018094687639999815,-0.01418475975965701,0.014392617232552366,0.01374807372730251,0.0073871169256607225,0.009209042858218597,0.011355927176207883,0.007658588832839347
272,0.013144447090982874,-0.008058760429090598,-0.02248003949095874,-0.002377262769843593,0.017830903535614614,-0.011711662357705052,0.01682615527098555,0.01702919954934122,0.013435322242852123,0.010287493018984576,0.007717790362261452,0.005951892485761515
273,0.010442696958222395,-0.009018986214974118,-0.023636096416472442,-0.0008129296205069206,0.017386004821248056,-0.01511322220279186,0.01733235809824822,0.01647981761523478,0.01787274159545498,0.015212641901681624,0.011334989916547036,0.0036401641994093514
274,0.013900173222614172,-0.0067064882985196535,-0.02163179604947907,0.0035843327665006953,0.01743683102392896,-0.011211987464631631,0.01488234081372758,0.014179470039663834,0.017271698909717595,0.019117474568757477,0.016236544984191168,0.005210033399075387
275,0.015850023124468184,-0.003377761107793021,-0.018247615328814564,-0.0015816629633071642,0.015541464190298043,-0.007324281548350849,0.011560518708535313,0.01301884141378919,0.016168144880733867,0.01794371123837672,0.018388339259373405,0.01086639714717029
276,0.014525337578125096,-0.0017037400753437126,-0.018079296487908895,-0.007192385316295947,0.015929356407888676,-0.010166360718298914,0.013745402451171604,0.013253389708083709,0.014707737732332443,0.01961774476735183,0.019399923316887543,0.014799055467797285
277,0.010835389401468,-0.00106368141965801,-0.017149606973078612,-0.0074538235592615625,0.010684418258718355,-0.006145919592415122,0.020080774211730747,0.016026876398846417,0.011844275681865041,0.02180288161463015,0.023941791412474118,0.01788885019052862
278,0.009585410045591256,-0.001029402549551802,-0.021055130168494897,-0.0071137623476764285,0.012446564742913464,-0.007869503527770164,0.02311073461388348,0.017457685283359482,0.014850785331606926,0.019808872714696547,0.02643194791992015,0.01715811995459198
279,0.01860700698507064,-0.0021566286640289957,-0.026943612521837017,-0.009166719741440139,0.020777048332271442,-0.012776847436046854,0.02242287095362496,0.016319013448818705,0.013148141885671226,0.018351104650891778,0.021322534167325487,0.014093481172943859
280,0.015786813444011095,-0.005893972112782576,-0.023081808117027557,-0.0008175078374139805,0.022715430291808676,-0.013668521839987563,0.015062924443748953,0.01833750947477387,0.01091813623621722,0.014523761496051932,0.013812933604644785,0.005710768993115095
281,0.018772367402853866,-0.006933730443896474,-0.018864516172971288,-0.008157053740514593,0.01858568413317283,-0.009013062825746552,0.011477335893251804,0.02239272604138586,0.01183582215305039,0.014257938603743518,0.013555700313231861,0.004528004725498892
282,0.016998055192021227,-0.007371051734492855,-0.014290775040523417,-0.0036538639779192944,0.014876525579640401,-0.01174959249106205,0.014015378793366517,0.0256498996558389,0.014865889191497627,0.013016775022554081,0.011437128508015197,0.0053501869811246675
283,0.019833751062898097,-0.009606375554674466,-0.022061918239887603,-0.004842087528856353,0.016931446012924508,-0.016752826000834928,0.018141462786846356,0.023647028452907164,0.018747818168537857,0.014210442234106373,0.012692891081445543,0.007425169537827014
284,0.019670037661375584,-0.011438806631636211,-0.022010205668335378,-0.001634619277961432,0.018580296424172502,-0.017612997655368716,0.01699817195857397,0.029937767538470852,0.02262243912991354,0.019269700700592016,0.01714233598847371,0.00992440975774455
