idx,I,II,III,aVR,aVL,aVF,V1,V2,V3,V4,V5,V6
0,0.02882107924882963,0.010763551577765276,0.0015603651591781162,-0.006670216170981749,0.0214475850098959,0.01995300860794691,-0.11066577720088122,-0.08211150702223408,-0.038175595064284695,-0.04283700134853555,-0.016246158941276928,-0.00356393503058193
1,0.015355501968470419,-0.014563582060176133,-0.019629774864615854,-0.0011493164772488004,0.030035483055233902,-0.010041568517449577,-0.10330664109112356,-0.07034947545307815,-0.0384575339114307,-0.0447624263576587,-0.021020726296926653,0.006550378021691651
2,0.008657632139403456,-0.02787591412286386,-0.032428315830087796,-0.002456213820511366,0.032075645294896864,-0.04616814882073404,-0.08574327070793639,-0.05447408748668536,-0.039437123263362045,-0.037503822100719564,-0.013351730747204638,0.015605341717830255
3,0.016578451310467375,-0.056433997544578146,-0.06809154068607498,0.017528325501166078,0.039960197531893,-0.06304551419185733,-0.07561980416560264,-0.04124498184590003,-0.03432455360614042,-0.01634934106453953,0.003469962008241928,0.02223007768215842
4,0.03237455597980356,-0.04102542582922952,-0.07970645762468634,0.0056625983517284775,0.055801384201510415,-0.060941655867728595,-0.05896001273762974,-0.037855117675475614,-0.011355057763741738,-0.007855848523960346,0.015587179006333357,0.023608060331496983
5,0.045665032148510906,-0.01046806548914761,-0.06704960998919912,-0.020199788045320927,0.06758399836620736,-0.0373802246273245,-0.05345007657416098,-0.032516051738708085,-0.016165267722905968,-0.005789187760958908,0.01376972631621666,0.02121254375631855
6,0.04145525775544761,0.029794080806624008,-0.039123297111087384,-0.03153304778107769,0.05483069316001905,-0.00667215609233511,-0.054175969058696774,-0.02729724103467443,0.002158042926317244,-0.012839680315870128,0.009189425863380354,0.0266101034072894
7,0.042906554302937515,0.04452329795846073,-0.0017236733142045393,-0.02433680045300609,0.030990577768649892,0.02148094603294679,-0.03870318430706976,-0.00982625122596531,0.014350316603612218,-0.0007995898925903244,0.020234082238888187,0.014558821342531794
8,0.022153422271461255,0.03187474705108731,0.010199166532447283,-0.02688464790903992,0.011848652251921268,0.021614364444598556,-0.033713189380709094,-0.02464612760658544,0.0005565099261517492,-0.0050070824873192366,0.01702339180810536,0.013258599460904998
9,0.014626280969549939,-0.0010291256468482612,0.006836316112048539,-0.005196098021505002,0.012807581172779045,0.0035665478687175525,-0.034688914942062485,-0.037185624286599356,-0.006635538031567467,-0.010409229297736633,0.011421059017959076,0.009853493904820015
10,0.00369982337542311,-0.01787602489681335,-0.009271948329354872,0.0015854400382964567,0.010415701513292274,-0.017240386926301234,-0.033768481032096245,-0.02277056831328947,0.006338726931802985,-0.007694704846335693,0.015013402002042958,0.0044659568229151805
11,0.0036103481483769906,-0.03165260538761229,-0.03203794111938218,0.004785142210755267,0.0073298838879474176,-0.03610092539177234,-0.042130085451847,-0.029042065350336738,-0.013953063067908444,-0.01988927323650236,0.0014206165655333974,0.006552640647160525
12,0.023228283725520375,-0.07053519986159905,-0.06407508406998483,0.023768911489868066,0.014802621276714301,-0.06332015373295458,-0.05914566927554807,-0.04457985241404841,-0.03125416761125438,-0.019806077230548863,-0.0022149533645192537,-0.0010124231596552388
13,-0.00023168492285372856,-0.09697706773711272,-0.09130146470216108,0.045315231479251254,0.03024920056900962,-0.07841267908164613,-0.049067839371276414,-0.03893819107407484,-0.022998318924669442,-0.02086685201034899,-0.012652116698181767,-0.007790804099451362
14,-0.015893248373032354,-0.08386572408671132,-0.07131555068098608,0.0488266160591841,0.035493133896455496,-0.07959818532395214,-0.034051658781814945,-0.033501823603619724,-0.03731445640981276,-0.02436354533106211,-0.014140492292318008,-0.005073457361356018
15,0.01142675334081106,-0.050163439703044155,-0.07628278223107421,0.029908425111654077,0.03289193670888436,-0.0599885047945448,-0.01995538833282374,-0.048439601620845374,-0.03003873993710482,-0.03447820085009001,-0.03115751215553482,-0.0058284294339571024
16,0.009594003605116537,-0.02409960439685932,-0.04584637941742447,0.013048390933350258,0.04228719019631572,-0.03698053984724538,-0.014502613428592992,-0.041628337105330315,-0.058186233219864186,-0.05094942095287758,-0.028196139437966464,-0.0031160094117716683
17,0.03214818600879096,-0.0027185567202831495,-0.021405901380345614,-0.006390986270431158,0.03541492650309113,-0.015024980422641707,-0.012172406263377886,-0.045300535837995676,-0.03357927377336625,-0.04713719670135538,-0.03687529561386545,-0.026833671567624923
18,0.006813899675491614,-0.00844331158255246,0.0016398953958867424,-0.004607892661514228,0.008851512468104014,-0.002351285326461665,-0.028694404195890012,-0.049055658910729966,-0.05095435049005881,-0.05751300477507615,-0.04904018283903998,-0.0448196702386109
19,-0.0019088774071786274,-0.031171255749270044,-0.02731270276423676,0.006136159310897532,0.017837520148426995,-0.036009364647900666,-0.045035452643983606,-0.05302795541848515,-0.052418132671942064,-0.05889795381456667,-0.05571276096486942,-0.04655298735401188
20,-0.010908809180790879,-0.0485390588704262,-0.026795438002251086,0.019665385606035722,0.012280849383399217,-0.04825360921560143,-0.039049531664290496,-0.05832930990124793,-0.060732084981177464,-0.058290442923510016,-0.04578842919841196,-0.05290042696788805
21,-0.01646976916153567,-0.04783861811365288,-0.044198899954697106,0.03967193131838794,0.013932540628740329,-0.05045258773348152,-0.019664359232071035,-0.04372761191796168,-0.035450310835430626,-0.057713832426874584,-0.038424689981989196,-0.02823677038338339
22,-0.018253358178882434,-0.0798793441646385,-0.07732338879728134,0.04231895937643284,0.024259246678385277,-0.09088342532370075,-0.017590896059803185,-0.04124712800235089,-0.02195540768375079,-0.039564247749477616,-0.03131155752296454,-0.01932825150279674
23,0.0005561466560920891,-0.0859511559522123,-0.09514876884032916,0.052858117453035404,0.03894924772606778,-0.102208346867486,-0.01926744536627164,-0.044798536777931525,-0.025781751023197352,-0.03511795362096734,-0.023865291142791664,-0.017173717120098977
24,0.0019406974767257699,-0.07355969705089967,-0.07678813932547593,0.0380800731545581,0.037725273340413694,-0.07718146612829127,-0.026325266920742205,-0.05057530736308691,-0.02909291985784096,-0.03335836658849542,-0.020566163314317806,-0.02271493216234889
25,-0.01381581012105078,-0.07929038389330494,-0.06615520742766084,0.04727849020936858,0.03443288313835389,-0.06318885097141502,-0.02730071329966395,-0.041404645034848725,-0.028721501830319518,-0.04295769286624837,-0.023662741646210114,-0.022937748599365704
26,-0.011966347075541896,-0.06406835035514276,-0.06136276435674599,0.047180511501976184,0.04432335385540019,-0.06834786450407941,-0.024011620310499596,-0.043662588602902314,-0.026467488921408544,-0.03704271998908443,-0.03821267146360201,-0.025946456329963938
27,-0.02995433945800012,-0.04108059539020695,-0.0227533333168626,0.04459122060045407,0.02808159050303545,-0.031849369267205704,-0.016010436566557082,-0.045809314472108786,-0.04386630403681638,-0.05092141727776267,-0.04855889191075556,-0.04163002300767338
28,-0.028692025290542898,-0.026583221909108057,0.0006709608284437563,0.026884267076723846,0.00907336790044107,-0.015103272221433602,-0.011994131707320145,-0.028990844719781167,-0.040095620533458026,-0.06632850439040286,-0.051507743852063095,-0.0517050988245146
29,-0.03338641100885565,-0.057920305201464184,-0.007679722746819051,0.03358686488946624,0.011146888628923152,-0.03783517754248554,0.015576959485904693,0.012123912387289035,-0.04848833465547353,-0.06310077292580943,-0.05205680257156749,-0.05461666667980024
30,-0.018945724535104375,-0.08789534931628949,-0.039679065831473924,0.042122169773775954,0.014351354744007087,-0.08187948078540458,0.0586730628796335,0.06274669895401445,-0.03601702259056838,-0.05285697257438937,-0.06774899766522645,-0.051024471293779475
31,-0.012201399356072675,-0.10705309544944326,-0.06402541802492231,0.06211539894619026,0.02629136772211744,-0.1036038161104354,0.11921151320455872,0.12986102812673292,0.0063893242166611075,-0.0377865031108969,-0.06546510583065927,-0.04985960407392018
32,-0.023561375790250957,-0.14852291437300108,-0.09609204279810837,0.0768156689516401,0.04999900881480699,-0.1028589991424787,0.20895636640243367,0.2371877391981938,0.050232249478269764,-0.019004397845674426,-0.059744080158446136,-0.07519216303380677
33,-0.02963786113908823,-0.1475485040711323,-0.11098368757836793,0.09011716634078898,0.047427230877389995,-0.12716629368909027,0.2946605929043568,0.3438093607633336,0.11569318001906892,0.005983477319078626,-0.05257081335943904,-0.07649879347436037
34,-0.06035004852192337,-0.1741918444038666,-0.10726525864769082,0.12552037545438804,0.030834518461731228,-0.15541422902599863,0.37309525655609804,0.44998793065789067,0.19165823217342431,0.020320751744526494,-0.047081891883334684,-0.090109987146582
35,-0.059235776462508064,-0.12785690875765426,-0.11374704282829173,0.0927929860869797,0.030236174248586684,-0.12055175350962313,0.45336766108600246,0.5558691885160058,0.22626248595252518,0.028188956263384413,-0.054092382943249986,-0.10426078787929619
36,-0.03531979218986435,-0.09635498727730955,-0.09629598326610236,0.07078955344376306,0.04044403482453851,-0.09194777655429964,0.5396536588471453,0.6854953466863019,0.27410059854360574,0.04063367512513118,-0.06249821900328188,-0.1177878469699358
37,0.003201100299220506,-0.07305203414908613,-0.06703441410593394,0.05695337839971499,0.047982944941045214,-0.07319660109790783,0.6104933392771364,0.785219811291459,0.40032796191631037,0.1077932593412028,-0.04549698060159106,-0.11666856316272986
38,0.04113478368116938,-0.03938224498112637,-0.034676928927240565,0.0054550024655844395,0.040614069270884595,-0.03518053093211221,0.6953313404825363,0.9350525264982849,0.5251753441747191,0.2081747487912155,0.011806431805294032,-0.10117879480129194
39,0.019386313822726743,-0.00021662412655836655,0.0006036166041977625,-0.0226055355031625,0.016008483500604492,0.010106294523800928,0.7338725472830092,1.157484534917388,0.7413936314785113,0.3818929467642423,0.12483822116334511,-0.03807250972025322
40,0.005179031242760964,0.04466417169758235,0.03284375968821023,-0.022998140008892998,0.005318209817640118,0.03411374865889778,0.7368784833669758,1.3317269384749133,0.9669370039474131,0.5682265801610622,0.25796515751615734,0.025334380254350038
41,0.07104544143958043,0.10480512965536462,0.029115786014487027,-0.09035672077229762,0.017841794159451273,0.06905994046289039,0.6868033493210909,1.4499271226207888,1.1435660182290726,0.7126072684606772,0.38276283376790216,0.12814355736193472
42,0.1323600828822118,0.17585771692802937,0.04776406240915142,-0.15918571910863993,0.02762919313715799,0.09475246259104265,0.5573692868814405,1.4509672928865425,1.3112962767718719,0.8985076093933744,0.5327866320787898,0.24627651103936377
43,0.1903015670281351,0.2880183503846726,0.08364604025223699,-0.24571340721152024,0.047890489910459695,0.16747579126037931,0.4086548926920686,1.4397121392347048,1.5117086621930764,1.1226560998084825,0.7147648288513515,0.37866605832930234
44,0.24381708681583716,0.4689739385788854,0.1764014884330564,-0.3699176584166364,0.035911266473356726,0.3206801655658674,0.1891842979620867,1.351008016548489,1.691768983959955,1.3718889873915092,0.9313024472182946,0.5335617043009865
45,0.2989631801128727,0.6414677236519587,0.32561256901599406,-0.4531343593719205,-0.0026790329226634773,0.4815325983938731,-0.042258542650307776,1.127503570751387,1.7973824609887958,1.5979776704844375,1.1563546083430032,0.7043790458804282
46,0.3304159279444266,0.8011109804718145,0.4475418115099726,-0.574839260897586,-0.03996693801409039,0.6306515414471553,-0.26730679474994057,0.822422384030133,1.8226671759244748,1.7827729723667713,1.3441964885842121,0.870802482015273
47,0.339222704821422,0.9852526155098579,0.6185389056888034,-0.6665248596491601,-0.10995920041487085,0.8098762975987346,-0.4670013140261892,0.47744462199190973,1.732337491828283,1.8850930327177633,1.4739193881597974,1.0119358084601369
48,0.325900234278463,1.0972720596061398,0.7699262247782656,-0.7122605755896227,-0.20043023362777201,0.9315126663763186,-0.6263043699179148,-0.09002928790398737,1.5304718142960378,1.9299967811100196,1.579929410315436,1.119124332622199
49,0.3219453172388981,1.2293936982636808,0.8759349789480795,-0.7762337361934336,-0.2803791357256743,1.0452446729966103,-0.7201310085059061,-0.6593708245550096,1.2794237381575748,1.9539257602270066,1.6275907524040611,1.19410235064581
50,0.2990325908815823,1.2705782335837066,0.9617408972410909,-0.793466465196122,-0.3372346800155251,1.1058562322952898,-0.7180109121604096,-1.0132446639414974,1.0553552500097958,1.9294746433535777,1.6585262762150585,1.197529095106158
51,0.2397793998127667,1.2488599097818038,1.005239888825256,-0.7522649820746274,-0.3615076135601156,1.118446413805719,-0.6530919957270463,-1.1778163464948632,0.8795495562623341,1.8176450579922518,1.5903796663831355,1.1718539185008787
52,0.16968098760398218,1.1228399553004489,0.9542001422062996,-0.6480007911634011,-0.38666971929724986,1.0365125008132705,-0.5834263876228015,-1.2082391478886612,0.6964232446224929,1.6084735143837496,1.3982951063277615,1.041284633581065
53,0.11864804058266636,0.9636628512862548,0.843727065905738,-0.5501979359487245,-0.3557851950037854,0.9016874106558926,-0.49924564578546105,-1.2122878261042378,0.4883107361479533,1.322540062770678,1.1554752336725207,0.8784895622169051
54,0.07385615992167599,0.852629197817687,0.7494010277574614,-0.46653448374942796,-0.33765091760490606,0.7971132147330078,-0.4288376374880004,-1.1722905300763826,0.22797990802920945,1.0006048307039694,0.9205607222932278,0.725941958016872
55,0.037777543052943494,0.7865265353788974,0.7143194794002281,-0.40863168315149023,-0.325669301195908,0.7222354803018928,-0.34370962750481304,-1.1683066960864283,-0.06612857643043044,0.6555929732507895,0.693478508098635,0.590930920823814
56,0.021368882298096255,0.7102682574349944,0.6784060786839394,-0.3705305344133754,-0.3216777148805037,0.6933349758490479,-0.27996717630378193,-1.125651913126333,-0.34843980447436873,0.360347457793485,0.48652566235347267,0.48043127255087315
57,-0.015489378240006684,0.5812492095419265,0.5880224745202073,-0.30146614331514016,-0.31628418035473116,0.5685096071818224,-0.23696015198754833,-1.0372306264753968,-0.4934324440308122,0.08814695117546478,0.2838615554206235,0.3602958001387173
58,-0.029859448426637653,0.4026807164548268,0.4391603697696326,-0.1938488108050158,-0.2678415101413022,0.41495359032306045,-0.1792324597100101,-0.9511912759322377,-0.5744411365254709,-0.12392743817175311,0.11474883232606867,0.2085232002897925
59,-0.07466778545160328,0.2071313110563633,0.2842057142037256,-0.06883230057228651,-0.19643225664747613,0.2455081459367459,-0.13257408131239862,-0.8262317548945465,-0.6231499518167543,-0.249725736282899,-0.05310404727745814,0.06689294909602027
60,-0.10574898991668402,0.02984321313321936,0.134304458252053,0.0371995318686305,-0.12429764937493054,0.08006628775253288,-0.10085225456104446,-0.7301291542007833,-0.6161453711155261,-0.3364603702113795,-0.14538514095433047,-0.018176173280844768
61,-0.14811905969617886,-0.06392730167143859,0.06630841489730556,0.09748375825356156,-0.10045941963899198,-0.009114790491962226,-0.0811347002693262,-0.6574480409337372,-0.5720501170616822,-0.3559017815052823,-0.19159144620326757,-0.0572679757590565
62,-0.15008452202417935,-0.10428164281805931,0.042885759426629685,0.11755990114145715,-0.08891613557683428,-0.03270548963581839,-0.05883426958117702,-0.5614289506333989,-0.5112814086020426,-0.3290838509588198,-0.18678564462983832,-0.07844333650655336
63,-0.11755335911592003,-0.12843503996733874,0.02325761401838498,0.14410988101999458,-0.05780325673726517,-0.05975895942326169,-0.028537997064917088,-0.5191092756928537,-0.4465922228900988,-0.2904635125267245,-0.16983514133613226,-0.08317678091993691
64,-0.13859989669796532,-0.13412266166380216,-0.029116627337028002,0.14051479836344097,-0.033670754350565955,-0.08550392943132343,0.00988427462956332,-0.4702594082476398,-0.3709915763646502,-0.2719140294331969,-0.1686099362981332,-0.0851240628653917
65,-0.12677514533543285,-0.1496587464401954,-0.050856001501467955,0.13746358936471215,-0.035833445214862945,-0.0889225941115076,0.024425572985986146,-0.4144921559122332,-0.3463978840115356,-0.24684735527194107,-0.17227068152382335,-0.09294765413824582
66,-0.1247504137713666,-0.1561195525525269,-0.016908675910022847,0.14755573047333873,-0.04477070481444953,-0.08852166217137836,-0.001880027102837696,-0.3706725791295473,-0.3062964682241127,-0.24470610412890986,-0.17423504271743695,-0.10894553429141215
67,-0.10205752478847445,-0.15353407898664195,-0.044006886417147915,0.13894857571795627,-0.01938387412902054,-0.10922228144195589,-0.04368194853015672,-0.3538796389310699,-0.2902258298576825,-0.23375339364366332,-0.17345652667307132,-0.1244671447627976
68,-0.10745908942041305,-0.139905651095118,-0.058066246801342224,0.12881892111127802,-0.011185973881964096,-0.10099349688833376,-0.061106933321875084,-0.31541442116764795,-0.27289996146729023,-0.22470030961170367,-0.17515858321127725,-0.13157992607910365
69,-0.10141288561564563,-0.1475152123969743,-0.06112366539330282,0.12383542224187591,-0.00907993974435868,-0.10504876473624208,-0.07368322722610585,-0.2764185690153962,-0.23894201298063453,-0.21181630007423224,-0.17119086221242863,-0.12690555179952384
70,-0.09108056140229548,-0.17666007559235747,-0.08344982715364258,0.1340740249215842,0.0027335405558398234,-0.12355645313181987,-0.0859077537863667,-0.24783319103097043,-0.21287536728242398,-0.17404167558772227,-0.15299391520051597,-0.10116224747990002
71,-0.09283067542380817,-0.1868946002107682,-0.1102040430620802,0.13075895644857566,-0.0006631364865501855,-0.16640371854971964,-0.04777995341684792,-0.2013371618931614,-0.17391190263337994,-0.15315447708213992,-0.14429856402234886,-0.08869736973401879
72,-0.09507186559880103,-0.1923004709401933,-0.14262206552062326,0.1421223109847962,0.018675118790115408,-0.1633357138896727,-0.02089865655264455,-0.15409722889212832,-0.12649815809723566,-0.12095467147023914,-0.1324532667963852,-0.08161609515392343
73,-0.07902305218268929,-0.2221883269125911,-0.14722659831559085,0.13666733970962713,0.02502977616584874,-0.17309567388279834,0.01059743422487101,-0.08442309560879643,-0.09104051859956072,-0.08731741396744067,-0.11486658114456298,-0.06818577227306541
74,-0.07570273479406564,-0.1718749419669977,-0.11521052669862561,0.1219639670743673,0.036322984882115474,-0.14461079836475166,0.04154647408909929,-0.0359124392066526,-0.058591278801890884,-0.06635995832574812,-0.08610492899608983,-0.051228722023250184
75,-0.056504331843327996,-0.14552084011376465,-0.08515914939288377,0.0976552337035144,0.030366966078255925,-0.1256821346880659,0.07283166922663736,0.009168775886033015,-0.009520951423381302,-0.05187077726344949,-0.055062046617482915,-0.039329802542193426
76,-0.02627209667064117,-0.08585679655039154,-0.0902461102941407,0.05531109008741444,0.02707964648184004,-0.09474023982489266,0.06640711736949806,0.045205139224805374,0.00021971058656924947,-0.028522057285633867,-0.03940869690146162,-0.04435474119711508
77,-0.01902779413064027,-0.0669705154791494,-0.04136036699493547,0.04618084785750506,0.020751611731460146,-0.05617298917714604,0.08913418112458184,0.07190816048772114,0.03529636833586822,-0.01898747927329067,-0.048626840031137195,-0.042067705272803915
78,-0.02342541603841928,-0.06364449300160316,-0.021539523998289685,0.036413351338587564,0.008352124487177948,-0.03860546313745296,0.10031060847501881,0.0796156528569416,0.077960309089209,-0.019931894845963943,-0.053021898699958894,-0.04527250865687879
79,-0.04984971438027509,-0.06883256024004034,-0.029440441936536825,0.0446607380419926,-0.008852457904053299,-0.03867669689611718,0.1058017223915262,0.09700357397579278,0.09256403703974016,-0.013746223044140082,-0.045181359496024795,-0.0424135072758941
80,-0.03260012609585432,-0.06613920023483513,-0.02742590156139598,0.04861630664224304,-0.008302505537113116,-0.0568375885318433,0.11357827880394492,0.10540012626284788,0.09187595800137538,-0.0007507127495574306,-0.024527607933181816,-0.03065892716829366
81,-0.02366215310544146,-0.07489475355170531,-0.05803019646509957,0.05128002241596424,0.023938339337579398,-0.07122494855899865,0.11518032116371814,0.11908198242357743,0.10326146497727037,0.010511925989910104,-0.027932688525397542,-0.019369951457428786
82,-0.034216563569782886,-0.08424381283803141,-0.06907572953511784,0.06459731797177623,0.03619914406116664,-0.09910450039716373,0.1127667045309625,0.13354048301508567,0.10003652875842343,0.015443188495290583,-0.017569630375522755,-0.01554545238945311
83,-0.03208719988401452,-0.10631695806999068,-0.07959493645812435,0.07048743919104974,0.030508185944805172,-0.09476488036324165,0.12134963699998005,0.14738624855396742,0.09201113329084877,0.02531868826386051,-0.007660782352654272,-0.014990502622236265
84,-0.008309091324477052,-0.10057438393990174,-0.08034436969548686,0.0436846283369935,0.024239565781231175,-0.08298020053784971,0.11680152498372155,0.16567566585137347,0.0983929677936151,0.024726910418110884,-0.006390506595515752,-0.013980812266024462
85,-0.002571454688024933,-0.06534569903605753,-0.06309271693519083,0.03368985644428565,0.03653031267598712,-0.0662267559257277,0.11554445141241693,0.16051080180034843,0.11907616007707517,0.02075542323064669,0.004236576078315291,-0.014738542886454237
86,-0.002464143259845574,-0.04424366392308467,-0.05652895144621021,0.028900985388301006,0.035540016496058875,-0.05311560360620808,0.12223945305573222,0.1645306111029026,0.13285491156214083,0.029921656250424547,-0.0034750095002951675,-0.011080096740798698
87,-0.00881361471984,-0.0048597931844974115,-0.026175134308872146,0.02077996532973983,0.022456329948075546,-0.006585680684182388,0.11751720167022232,0.16363698608250712,0.1119357475001525,0.013444685515900001,-0.009982778540159401,-0.022940943268820457
88,-0.01726507213456511,-0.011538313968731187,-0.003508200598142948,0.029644923408457598,0.019789557040470564,0.010439388639434,0.10404826375926632,0.15935327685426248,0.11710426394706266,0.0063213374926496535,-0.015571455805659065,-0.030717631447831906
89,-0.0019513026288548174,-0.034383386022261014,-0.03378863432318705,0.03358046137121056,0.028491900101229192,-0.014415633276441839,0.10911542896742603,0.16940046113644544,0.10059065325145676,0.011226107521255177,-0.013853030304435285,-0.030524232171535465
90,0.004423524850837523,-0.03830257373557404,-0.032840459815615196,0.020379310460861902,0.028810193589722116,-0.0369396539574338,0.1146411961651029,0.16588097050481004,0.11191926913365774,0.020909404939242995,-0.021824432479877323,-0.02142543236226556
91,0.004291327333662583,-0.05698868578685577,-0.055352327307926864,0.018756651998437956,0.030546476420386215,-0.049916271307538784,0.10994574026563789,0.1766920528811869,0.14333781408470495,0.023552763588421816,-0.005605833575978894,-0.010448373561719695
92,-0.00136460717616773,-0.06902837979593818,-0.05807558523120388,0.02503343427479502,0.013902946171873558,-0.0581356960629921,0.13467156761869598,0.18425863072756457,0.16225383265144455,0.04019710533317013,-0.0033711696201030455,0.002740003933517983
93,-0.04280273370415238,-0.08671556954217115,-0.045200580635869285,0.04382427279318473,0.002527789883571663,-0.07205267519991461,0.13753500154842263,0.19755294907665763,0.16376646492833308,0.05582054940922615,0.008697581346002792,0.00044209074173465895
94,-0.029948316838930206,-0.0773193208603908,-0.04259613512851821,0.03983723095755604,0.01004691995714793,-0.06248994541724437,0.12290146616290257,0.21145263394176045,0.1576662928119173,0.05612353248378353,0.00939928617549185,-0.0026384939477099786
95,0.004075577233575924,-0.08200576309788,-0.046483250413637954,0.01924494725741309,0.022746365790834784,-0.0825393368545512,0.11607705460231016,0.205239382596682,0.15049106097044151,0.04285960794253983,-0.001322081307677539,-0.009973708413108878
96,0.003524630650368419,-0.044972979918741385,-0.05322401430749187,-0.011951843015387757,0.02517540993256865,-0.06485943662637479,0.118434032186988,0.20697126068789884,0.15566483005319873,0.0405963395082818,0.004063740881983455,-0.006383621040091242
97,0.014627489093343089,-0.002119114766524724,-0.020934247056860283,0.0041327117423837,0.020773148469602654,-0.023911593909960366,0.11883556331107668,0.2060001249741072,0.1542037681981714,0.037252960577619135,0.003841888113321354,-0.011507954377344032
98,-0.0006616842285965558,-0.019253923363156067,0.015555706308144575,-3.7766699516314506e-05,-9.572216219827685e-05,-0.0038566564676092707,0.11808677947616829,0.20522838203842564,0.14849632647281785,0.030848081865177554,0.0006100067925249308,-0.013436159688046331
99,-0.003002778656611001,-0.019429309601720735,-0.017901508127434282,-0.0013860954750987593,-0.0020499318571760025,-0.027445415255003394,0.12020245898931453,0.21982384941032013,0.16403559603951157,0.04102784633581898,0.0005588584856224821,-0.023029559804255556
100,-0.005525419344882293,-0.01759226049194408,-0.009341099540924332,0.029835037248276977,0.016666442474587102,-0.030460485547678953,0.13005318450904169,0.22978253868955806,0.15679429040426213,0.03735712527058867,-0.009136008524700076,-0.023236248844575744
101,-0.013053878712039885,-0.07274475772827545,-0.0017960543688547298,0.03840744848513102,-0.015834128799919044,-0.0548636738264497,0.13440057819430623,0.24698860853046048,0.1841680336283839,0.05101016849401048,0.00571056687890889,-0.008179267833642354
102,-0.024465000345207377,-0.08763797249495596,-0.054425802328676935,0.051640375029145404,-0.006756753056178709,-0.08229440722335768,0.12970913700343817,0.24212993309202388,0.19645184609926764,0.06011369421748794,0.011144509569085859,-0.0021936806390228866
103,-0.0060196024912295195,-0.047189665088167604,-0.0715950961650624,0.029917948921455655,0.045365765284024855,-0.07108148138964399,0.1349540622077398,0.24249919920802124,0.1858690634025085,0.06666996715960115,0.009946062509005524,0.004120654719514331
104,-0.007768490827053479,-0.05221795150387121,-0.055225745326383725,0.029239864642360475,0.040506732753814445,-0.050985126429373154,0.13227117972837227,0.2531354477914425,0.19328710452422668,0.06886936473605634,0.018314114254536468,-0.0017857899338066113
105,-0.0024804474054580354,-0.0659574152997276,-0.043777373510272825,0.016483625012077736,0.020914500483668073,-0.04423071105481806,0.14560986333383064,0.2500314413295137,0.19121842180176088,0.08117794879499395,0.024691971814469117,0.0109142845337689
106,-0.00093742851244266,-0.008753723286013051,-0.026010560260273215,0.0054099520748487825,0.017607578462184928,-0.02427518623482107,0.14913153603143525,0.2739033715298953,0.22828058396010512,0.08084989456339646,0.02550610285302987,0.013485067381264017
107,-0.011179671586260232,0.03215272259286029,-0.006599976934840483,-0.009808413201636449,0.010918264890886686,0.010768824888906584,0.14641674165182822,0.27830954686030296,0.23477278880777827,0.07639278327377268,0.02611784492983732,-0.002705095925224839
108,-0.00046019593568752404,0.026430118492805507,-0.0001308706656680675,0.0018246355854227084,-0.0008023153220197421,0.009782164219230852,0.1431471906246452,0.24740758570362664,0.21531677244548716,0.07439728665176798,0.026583933897888642,-0.012907246399940134
109,-0.0018987638869151936,0.00031236280721688714,0.009295523693418843,-0.007468714337053858,-0.008842656327536152,0.006034126933944554,0.13653778779001474,0.24854077170904498,0.19959845606559395,0.07066849289219437,0.008992027912939918,-0.012398084569369638
110,-0.0014805682676662883,-0.010564337863555567,-0.014236484823976013,0.0007609580471098151,0.006514478202033422,-0.020144144370825276,0.1414254902458494,0.2534630982736656,0.2042336196570984,0.07344875433864867,0.014864951305288712,-0.003654442510760733
111,-0.00021442925239123674,-0.0345877792275866,-0.03265086223589877,0.01676712847381711,0.02506902036518486,-0.043047352364966845,0.13963591502224848,0.28725621059696443,0.22278582157692933,0.07731783767000953,0.031313133230498356,0.0036609388497715126
112,0.010011332973341789,-0.05217381078295158,-0.05576151675243433,0.018184066554189193,0.018514310603529774,-0.0666563875058346,0.1313754445075499,0.2972907776667617,0.23489264923934539,0.09874098092018324,0.033740269780501125,0.017413312806675824
113,0.004117955767938968,-0.05858411938662021,-0.060705301451729234,-0.008036721818134297,0.019599803753267843,-0.05734767995938411,0.1505793846785367,0.3023226757016976,0.25464123706695,0.10643877909894209,0.04045036418066137,0.021012967936373944
114,-0.00149312699819641,-0.036164088913284834,-0.04336416403094671,0.016332957718857614,0.026376866786322777,-0.04678737245902606,0.15414235862690231,0.3060748224519083,0.28089019726149195,0.11788508920970064,0.045543839529632306,0.017493549439972375
115,0.01866541580436712,-0.026601344713940378,-0.042821259917989386,0.0026253770702060683,0.027843950772857978,-0.03457556078644172,0.1507270905482711,0.3129341757318227,0.25946525243182705,0.11666364972124954,0.05015579652534875,0.02278256547330757
116,0.010090472688337319,0.008759951932161496,-0.023851784071661726,-0.020795328092168754,0.03895052844395671,-0.00955346400985381,0.16271506094505434,0.3171709801324123,0.26255509977473884,0.10790054866944626,0.046949486152752476,0.020433548715804536
117,0.029961631188830704,0.03397899832121909,-0.009275814732645785,-0.033215064897072294,0.028318940120131725,0.013522429695354807,0.1623602777719001,0.3240587712208662,0.24651701586068459,0.09928528702142231,0.041840953551566445,0.003782689029497771
118,0.015393597515520767,0.03458444244560152,0.015129192393917332,-0.020363126770071606,0.005527375344205743,0.02025267015752555,0.14973802032310207,0.3207469409318631,0.2417690400612028,0.10475875137435903,0.03139021493039416,-0.0049486140893156075
119,-0.012249306390110277,0.007116769050546694,0.014005462185957596,-0.00022352208174447608,-0.004405094233754062,0.008553567678148431,0.14508659807686897,0.33534310589807287,0.2564443094903637,0.09892709472788329,0.02836486796649848,0.0006188569719746614
120,-0.0029882438031172687,-0.01177332550456281,0.004957711352263923,1.3022209425575526e-05,0.002330908577826099,0.0016494824072935885,0.14191338380636384,0.33044875091383574,0.2766325301458106,0.11113738434361942,0.03555833547879561,0.010411421676268413
121,-0.0030938811342855824,-0.005786187394894254,-0.03059821356896008,-0.017483865476735888,0.006407043006972396,-0.03405911390381704,0.1453379179617836,0.34298336706594185,0.3136628403639417,0.12249975121303272,0.04241648411164422,0.012454447062144929
122,-0.016990825767501702,-0.020906127544981154,-0.06444204296114417,-0.009533329879207603,0.02012061613508509,-0.022703212206022963,0.14935145275559358,0.3534082523798445,0.3276876420915664,0.1353032479165903,0.048694749530869164,0.019428422702026965
123,-0.010250425055083544,-0.012656218671721647,-0.040562293962494646,0.008892628866903417,0.0045996176774890825,-0.013932912747917539,0.1562099210449683,0.3648601003037447,0.33716386787544983,0.14910196104630444,0.06240127371445385,0.026500911386351245
124,0.005138261675890825,-0.023022275378657017,-0.003345316107334642,0.009960551898386391,0.010055993666345247,-0.030201919750097436,0.16597087210305198,0.36918019866183194,0.31329177785897605,0.15384351274564878,0.07609103102069907,0.037010587190655586
125,0.028476033284085912,-0.01706216855661502,-0.032195162930444186,-0.006460288886836946,0.02799530823048281,-0.017280002581707928,0.17023857158140857,0.37714728514883844,0.30964843397978525,0.1624598622218907,0.07598726931388777,0.037756943541752575
126,0.0184501970473279,0.028392127989413204,-0.01985702313759298,-0.022607702564830065,0.02365735297782355,0.007896358933733333,0.18539462124029843,0.37774148210430936,0.3302976245113579,0.16511150664763594,0.07203401119515185,0.036194790836273694
127,0.01852752118186271,0.05416341744244611,0.04222868653590407,-0.027021009233164448,0.002953199337052138,0.05232605311457777,0.1852781776171924,0.3829009886550342,0.33613111649282557,0.1586921129462484,0.07646173456669125,0.033143792194471194
128,0.005223680507193207,0.06634078089341078,0.06567730943555221,-0.03134583733972835,-0.02406044601703009,0.06107752030078547,0.20562228189853635,0.3939034328332076,0.3353494874878895,0.17480121126768827,0.06779889237271208,0.028011679000232506
129,-0.0006758356458747613,0.04257306321441298,0.05038812126990799,-0.02431241739788689,-0.020195562211542603,0.048690470449982426,0.18699120035419053,0.4084459763167324,0.34806482891327184,0.16768466578657487,0.07570430559875388,0.028916570082546684
130,0.010345560126763046,0.02319652950920631,0.02465978721024212,-0.03127614199240364,-0.007730980736057835,0.027251532169068476,0.17316501546868301,0.42346617696058375,0.3629444469487776,0.18233469430504257,0.08397852266633916,0.03422427188208431
131,-0.008921666137338571,0.024557981058258446,0.004456057930806924,-0.031215569154712016,-0.016752781654998675,0.01386310160914165,0.16978808982519975,0.4430374341575709,0.37364518526621443,0.19540766839009266,0.080707516066966,0.0382659373286187
132,-0.012886042707309512,-0.010879284472346512,-0.020103455326565482,-0.005621862748272911,-0.00037960082244979654,0.014207481507898079,0.17123957309976506,0.4444472398297581,0.37637653534591986,0.19574990636409864,0.09726381839506829,0.05049100980296962
133,0.015386061590744874,-0.022493711796996968,-0.029276518741485992,0.0041068894444462045,0.004979535613955406,-0.004799792223399282,0.18085273240728636,0.44763584836904957,0.3984742129445359,0.2096471738521194,0.09519497689860337,0.057437104583195786
134,-0.003688087869270499,-0.02261749158651105,-0.0035229930509073012,-0.008936125719011936,-0.011363962445733684,-0.019165559874935192,0.18452653921185844,0.4556230938664946,0.39848924759646026,0.21910351290093466,0.10797983662968265,0.06118653730357778
135,0.0004315739273551798,0.0022725053318265465,0.010568005920364588,-0.0022849179844093605,0.007299222297798691,0.015413928665814917,0.19056554328966976,0.47715255792311306,0.41591209765138903,0.23345688243708876,0.1136453628555982,0.06614804006211406
136,0.03437000538778553,0.05359950315486762,0.02939333288268403,-0.051930667165494854,0.01779088823586144,0.025625254839655925,0.19718247676212305,0.49672547272979284,0.4352706775265235,0.24036238823931486,0.1274911812020757,0.07802031005076933
137,0.057766396806428484,0.09101894164233426,0.05698911988102483,-0.08002969721877926,0.011541897965170576,0.07199648282157611,0.20863971557365515,0.508638743083291,0.44973131111618525,0.2453623264287758,0.1269608774929824,0.07514593927488863
138,0.05447694068453448,0.11045801311188931,0.07780912066630433,-0.08255720734722942,-0.00430118010288601,0.10429450769764181,0.20645476031264068,0.5102496821255323,0.4567533797283584,0.24817583374558477,0.1320900925511019,0.06826932248632851
139,0.03690568078265063,0.10322061331442473,0.06664381107548695,-0.07841238300358022,0.0022409079255594783,0.0738400017704195,0.1949143345459889,0.5174648584506082,0.45708349466883147,0.2552948205006415,0.12750576483549503,0.06574108491282052
140,0.04400497873310478,0.08796316092626455,0.0697430091128966,-0.05663474320694206,-0.009336453680912023,0.05587646854490598,0.1803433900129058,0.5402185527256906,0.47440244579958313,0.2679292101219919,0.12404737103092796,0.06874549338403231
141,0.03869855674083719,0.08001446791166189,0.03499607204025609,-0.06367542312803356,-0.003524123841045255,0.04199330732322584,0.17961386693167808,0.5462585978476912,0.5058827799297525,0.26793972075537076,0.14334235292401262,0.0782690024228295
142,0.029465372274755812,0.07277312001627609,0.003804967592232769,-0.055769567127935946,0.0022130092741020502,0.02867621925595059,0.20665975264354886,0.5678421579965066,0.5392640835638186,0.29330252371689547,0.16239107888128346,0.08737092375685693
143,0.035116305918113586,0.07585576077756385,0.025276433395969293,-0.06876105118212006,0.018776624110428748,0.033489907710727074,0.22506510638340743,0.5889807070139575,0.5614357002249071,0.3301689233008341,0.17358753185033984,0.09926030602631361
144,0.041690589741705246,0.09693449877015112,0.022747096428511845,-0.07006590077902988,0.01826085601211394,0.05678868342045357,0.21610490726743348,0.6017714625555054,0.5627811608068255,0.34432563384977133,0.17614414478717086,0.09906091925285
145,0.05963443816789153,0.07607608145305,0.03230700110865201,-0.06860861633357254,0.02195845780794986,0.049652334040797205,0.22260504393310565,0.6100326142668849,0.5585787943194443,0.3486997839038045,0.1806162132898536,0.10621452201206866
146,0.053224430248443325,0.07068770661902715,0.06504986286110809,-0.07454854353682919,0.003536846994279459,0.05888662412049821,0.2319848628744058,0.6096184175451596,0.5740938947855414,0.35501751730349357,0.1939946536373069,0.11287730676972194
147,0.03647576042220474,0.11777223366091366,0.09464847345354141,-0.08086591532131016,-0.02599283065310317,0.10244010220079462,0.20547186841855333,0.6173869183545666,0.6233319027325807,0.3557909209171457,0.20344073649280037,0.11127686376981112
148,0.03474987073005771,0.144414652759087,0.09845896563434745,-0.08941917070272914,-0.017533945600539835,0.12564346467164145,0.19875353183531969,0.6264007586259632,0.64683231747697,0.3590373072597692,0.20475213806441983,0.11168297864669971
149,0.041487838720479335,0.13454055759006533,0.09713180111200134,-0.09135475033964323,-0.021730694166292752,0.11074056645115507,0.20291262962635245,0.6374459685263986,0.6486512913174566,0.3738341499567389,0.21538121551890227,0.11657872655574929
150,0.03107590169838232,0.13162645067388026,0.08206458276479095,-0.09104379826282481,-0.01059895217563155,0.10404212477070424,0.2247681669491456,0.6560319047889154,0.6550179244480475,0.39415465272775285,0.21145959018967986,0.11876757078381192
151,0.04635695415479076,0.11235353899267653,0.07277147947450686,-0.07925802719094523,-0.026312718244082815,0.07933643166343829,0.24135219186660994,0.6770468193571231,0.6849252973831497,0.4166414444581184,0.24284064101182135,0.13065332600255103
152,0.04574781421202452,0.11966896947388844,0.04262512751473687,-0.08297314365778471,-0.0013407997011400594,0.05806550814045612,0.22702072129959291,0.704309624218095,0.7112847102260897,0.4466277387674369,0.26602314576536146,0.1459839043793103
153,0.062056245429932246,0.13464783351885418,0.0412196910578527,-0.08391789298044738,0.021417551783669317,0.08789828492039761,0.2410502955606986,0.7061995036274136,0.7361514307576782,0.46241055414127485,0.28146415221481397,0.16237208294909583
154,0.06702970336671421,0.13168626164226047,0.07095722744527719,-0.08467266940556906,0.012629668692004796,0.09052385263370537,0.2476794603844836,0.7153963633184626,0.7625622110096788,0.4782239266489214,0.29340740637915486,0.17308347585371503
155,0.07047938497154137,0.13143991976876385,0.06430352260801725,-0.09573601025933332,0.009511770133396815,0.1022942424682905,0.23936300328530044,0.7160005853128594,0.7810833497577991,0.49549241251951776,0.2981777254527518,0.18222651686498115
156,0.08372729580281328,0.15270031984063004,0.08751823822472776,-0.11855761352746275,0.006996999209053256,0.12405643286808032,0.22173909680186657,0.7072878456300095,0.78924067158839,0.5129728250764979,0.31612184797356935,0.1986929614628458
157,0.0967057293784211,0.20941239069611467,0.12422033999707155,-0.1443573916850083,-0.007002987651574895,0.17120952914510365,0.21544741527384614,0.7112838758295476,0.8482905954508303,0.5202687913692802,0.31673670120030184,0.19559892370003065
158,0.09564135228145666,0.2238518365333952,0.15482476082790264,-0.1541499984412192,-0.01903478385375379,0.19565769308505052,0.2102445631672222,0.7368396726735822,0.8550200583216775,0.5428183388117466,0.3319576742842017,0.201249886544992
159,0.07663026710734493,0.23995087568851736,0.15760710597181812,-0.15634050075338618,-0.02396830247034812,0.19437600207322148,0.2220170092548042,0.7512711427366939,0.8605891247466483,0.5575021823634916,0.3338984702995232,0.209152005530588
160,0.06524334346760872,0.21257843143131316,0.15798483246846895,-0.14582371600677715,-0.045895729311352884,0.17224520260324305,0.2271590480218204,0.7562602028324706,0.8664298551501345,0.5634876810343684,0.34959967299916234,0.22362373178511233
161,0.0649220809824685,0.2150649770285193,0.1691540250727961,-0.13980273711703634,-0.0474536393349906,0.18161407120116374,0.20899297732534045,0.7671205919421488,0.9048808240591569,0.5828205240776023,0.37878599426764403,0.2281452806047258
162,0.08029173589312295,0.20460333505548894,0.12090656369835362,-0.1419814597152971,-0.01363348971937989,0.1596083626292218,0.20765622596261193,0.7610891695077641,0.9291356109912685,0.6179317499312874,0.41210986451708354,0.24991065922624306
163,0.10603177485090672,0.2129549307606582,0.10563541111190117,-0.15286330723664335,0.004968779969407365,0.1490405013797818,0.211464486200231,0.7761175082892607,0.9339469910382552,0.6335201985933194,0.4147535988252039,0.25571172646252427
164,0.10810752255008914,0.21859494612514724,0.11961622422021495,-0.17526301237454164,-0.011747507402684756,0.1557015459056344,0.22158330823516942,0.7734976682624862,0.9446202510094381,0.6524497253393313,0.4241891929261753,0.2672967826305136
165,0.09977843591197984,0.24079913907210043,0.13973295836227026,-0.17104214401514206,-0.009988678019521765,0.19674289475222942,0.23062842452122287,0.7840279228932033,0.9558421810111868,0.6734005788851756,0.4304150648971807,0.2773489848941299
166,0.10712050261232865,0.2779794424818348,0.17096044326766416,-0.18196070576915407,-0.005432940344403172,0.21224872672288672,0.2323446459385652,0.785771608772968,0.9836242054427549,0.68693182107997,0.44835482229923984,0.29633895944697564
167,0.12406972061171896,0.2949251897078757,0.20530373589478088,-0.20356874509847736,-0.010088262485609107,0.2508161291318962,0.2183341260057941,0.786057947786201,0.9727121470607333,0.693538526454246,0.4533272392863589,0.3071483114371999
168,0.1285745159747778,0.3102142606165263,0.23628005493696433,-0.21233131880856485,-0.023493302311300354,0.27427830042391355,0.19456426872124233,0.792512167572114,0.9672044358050893,0.7063702242926984,0.448261294839648,0.30983881116646506
169,0.11684471116800726,0.31570741565591526,0.21939022009668444,-0.22429055477379542,-0.03814479952401404,0.2829236139152408,0.18765688250336005,0.7757774650267506,0.9716986081613962,0.7068225101599457,0.4595078788526228,0.3083724773487365
170,0.11394028187941324,0.3178632357916616,0.20298224227914538,-0.2151327248517038,-0.0375931459597421,0.2684520909105813,0.19205258822970425,0.7577545596007065,0.9891744747538431,0.7248950147183835,0.45733236516206616,0.29915516835488476
171,0.1063100298887491,0.30219001835738624,0.19917797318594407,-0.20212566852657604,-0.04197251874842578,0.25218472298061945,0.16898619632588704,0.7391632246385946,0.9954858552818809,0.7354429273004157,0.49450916376260756,0.31086202700312093
172,0.10304233217682064,0.29988515509460634,0.1964155924342337,-0.21136472459561606,-0.04155044318184006,0.23974721196810347,0.16412340161785996,0.7465198648947511,1.015568083846495,0.7401076626665322,0.49475116042875944,0.307095648245991
173,0.11742421554414667,0.2959198276544679,0.18623349750089932,-0.21164254124337192,-0.032163138414840316,0.22353637032464863,0.16366191176870865,0.7440693293403381,1.020714815591068,0.7606295560954466,0.5066157344183676,0.30850468806798603
174,0.12577594572434192,0.3095964103044553,0.16299563500221703,-0.21859522343416168,-0.022589520618431787,0.2366767775428893,0.17230662095898944,0.7376912653457597,1.0307118744692705,0.7760852294868634,0.5115151838187817,0.3228014066539767
175,0.12681287008425712,0.30007172983002867,0.1663928391248649,-0.21859721486186776,-0.012180138888874896,0.23789937353788274,0.1739686529890494,0.7153602178091634,1.0229975371422384,0.7786999251712785,0.5128018754746954,0.3319262253021301
176,0.13094803675597436,0.35152010200790945,0.18779418310381357,-0.22842274325069475,-0.032319189608773405,0.25299471895101594,0.15900075401019648,0.7006289726810332,1.0099000933119044,0.7622695633143679,0.5183381156447453,0.346864729120242
177,0.09140013924656959,0.3548115080099768,0.23440097876426028,-0.24009905252386549,-0.04485477580632359,0.3030702750775162,0.1346930086202348,0.7048418414731273,0.9947543696177995,0.7551158721772826,0.5165239055472464,0.3381247574461901
178,0.1225646319932715,0.36448353917375703,0.2714305505166955,-0.23571612925523847,-0.051459501703827716,0.3100527363348288,0.13322801497602266,0.6945207242374967,0.9971855575415867,0.7501792661023343,0.5181085365536754,0.34537858299513335
179,0.12637105845284363,0.3748609500879276,0.257975428450285,-0.25097890968333175,-0.07046680798735759,0.30941445163263226,0.13028679574115218,0.6762010017168565,0.9994477816372319,0.750659620022623,0.5182854422006345,0.3368019381942635
180,0.15018702524137917,0.38033565354827875,0.24150338080514747,-0.26601469591793075,-0.044070653864569376,0.3025907205885604,0.12619895352644106,0.6777214762014421,0.9976370956730557,0.7502052893723723,0.5277795293832812,0.3470621709407121
181,0.13799053968525657,0.35871023905153004,0.21405527861526435,-0.24641540791491506,-0.03820144459458623,0.2816868729167141,0.13210006596364804,0.656804830731872,0.9912983367020031,0.7560484973452695,0.5317288234028614,0.3510623479316677
182,0.13268192125123812,0.3412311993354479,0.20733898314584412,-0.2477213277523773,-0.05715865639008004,0.2572031025797741,0.12638611754285844,0.6451465605017356,0.968586225516059,0.7530075198453763,0.5360873590989247,0.3459043202558765
183,0.1217959710668796,0.328111660610206,0.20574306302053796,-0.22875930223413576,-0.035303130730557075,0.24866304349562052,0.11978241127007046,0.6298925351587434,0.9454727742205243,0.7452063801677857,0.5245817800190026,0.34921999918884994
184,0.13879388724849268,0.33668490656438765,0.17168685936712685,-0.22739863681704953,-0.023543454521157366,0.25217833502565373,0.12734839029635456,0.6019774377739026,0.9220010500525333,0.7337296512402884,0.5247363523833116,0.3480368211358654
185,0.1449545114792871,0.3311947505789133,0.20574261536967123,-0.23225532783392192,-0.030312381669544856,0.2678058137491336,0.13500700274759475,0.582442924025419,0.8935689975573912,0.7137101399365362,0.5131063554152098,0.34782103708286094
186,0.13267423188112248,0.35271209156468575,0.22500600505264,-0.22232765624969755,-0.041397632800349506,0.28682684319520124,0.1361517883750072,0.5726686317385113,0.8679799277912682,0.6901665268815402,0.5039531219913844,0.34174921691535143
187,0.11735699062954155,0.3666271332403899,0.25967071049494234,-0.22652448401917552,-0.05466497483233179,0.3215181520254827,0.12458662728586821,0.5627777038372285,0.84660550353285,0.6596809636566936,0.4819641261764438,0.32995933289953505
188,0.1061027765262968,0.3744972597412487,0.25872676122993526,-0.22725045082507653,-0.05818969677184936,0.3205093053565734,0.10817892439625587,0.5396237381807006,0.8138546065898665,0.651895507739578,0.46270473732366035,0.31605663054694955
189,0.08216414897620147,0.34440939549695226,0.2315072009200728,-0.2120527708707424,-0.06315234486250428,0.28598545775407647,0.10088712069831826,0.4999471673799164,0.7822713389200449,0.6263841428157827,0.45032612461254407,0.3066872709460222
190,0.08870506704218563,0.31456329742373773,0.23660264335096767,-0.20840361763969614,-0.06719447049664073,0.26282507699820445,0.1104412224244655,0.48156038814113145,0.746825947234067,0.6013783275940409,0.42971370360264516,0.29580710562661516
191,0.08699397807867562,0.29294567612419053,0.20957084802166412,-0.1920161705868208,-0.07823991867917558,0.2510956680047982,0.12388403054316884,0.4687311864362097,0.7188519837981899,0.5897637026671342,0.4156562213378037,0.27784295201528025
192,0.07417203675377065,0.2778220397276125,0.18060614900220012,-0.19752319050254138,-0.06628570155701885,0.2171940501247445,0.12243125848800618,0.4503684636745059,0.6957910503978778,0.5760174329939471,0.4061681726704758,0.2807213873832244
193,0.0882853320942698,0.2769114985231077,0.17390870657497162,-0.19006662935979854,-0.0437326441262892,0.22340255460893602,0.13922660644756302,0.44148505888959344,0.6636887628740754,0.5597308350530292,0.3979213339345849,0.2823912176569161
194,0.10537727713309404,0.2843962321310651,0.16577619737884972,-0.19573635299696215,-0.03337946221432674,0.21874147225956822,0.1407163475024662,0.4141867322078935,0.6329809944336288,0.5353900417892212,0.386556069679422,0.2639126722176527
195,0.1067063707977158,0.2608919051550241,0.15505127672460464,-0.18635559695538567,-0.03330248965100553,0.19989401450796393,0.1321802732293268,0.38828265732194644,0.6028853690323399,0.4962784795607216,0.37226476984912216,0.250681064394065
196,0.08977425522762081,0.24542349506231653,0.17332559938932005,-0.1712093733102961,-0.04676078509841132,0.19502780546725187,0.12273619957946394,0.37192590473225007,0.5549089306916154,0.4574746627208624,0.34237278150125194,0.23370518357399536
197,0.07068820882170662,0.25111216552509547,0.17393808607149838,-0.15473275850923854,-0.04084415352851595,0.20699430638225336,0.10165382827162457,0.3439125158312923,0.5194481004111023,0.42480866876891143,0.30497248263469723,0.20348518390549075
198,0.042325790712362754,0.22388078366740355,0.20840493128123969,-0.12698722231737153,-0.07579415690240536,0.21142536918685415,0.10423096678211166,0.31991752669222295,0.4935912307521233,0.3923803144080399,0.2740986523924756,0.19600822816607724
199,0.003092703626660178,0.18448567482852735,0.1943350686736213,-0.12023996817576282,-0.0964107610939323,0.1802879026761687,0.10485602858004747,0.3130565441197982,0.4522445137839406,0.3580368296891395,0.2553126867719103,0.15993271006863022
200,-0.004156039188915895,0.18724853187320256,0.16033034320000508,-0.11023112291233927,-0.0834606175261257,0.1549641482182641,0.11396303881316451,0.3030366497152647,0.4026769553598543,0.3505007889959598,0.24768783402355332,0.15413556117824348
201,0.012344530775637567,0.18090676301926084,0.13594873083736472,-0.11166632914158353,-0.052024459262008126,0.1441886216311131,0.11148243839982602,0.29837089594702015,0.39477969008424085,0.3385842032558145,0.24401589582082694,0.15352885163987612
202,0.04412037129646732,0.14580811013838954,0.1141488097068114,-0.1070670290752247,-0.04616481633074173,0.13561836376627745,0.11805626539199925,0.27493159504293085,0.3852421971203642,0.3299601364389209,0.23124824718942855,0.15287539715977597
203,0.039921596211002275,0.18053371665100187,0.10842590060175564,-0.11181674984412682,-0.04082405072921952,0.14163244435469877,0.12326952690141964,0.2661067973686092,0.3788226155679318,0.307450352115193,0.2057123083159533,0.1432348125434209
204,0.03086061993615543,0.14310471797208488,0.11059093880812129,-0.09092208284251135,-0.034374506327726255,0.12556346633223592,0.12573024706527036,0.24688502284450342,0.35447792808219414,0.2896274510571304,0.20844764237216032,0.1539744655872544
205,0.04183588066208624,0.1432215124021844,0.10887696548689557,-0.09135316028551893,-0.03082220164584585,0.12387490981387048,0.12027182125624393,0.2331120393655556,0.30912800570095816,0.26272699521814746,0.20472226737199456,0.14013744692172853
206,0.04638834459597683,0.16123128763419042,0.11142963164057562,-0.10276183728330643,-0.030129724443661215,0.13432291169727933,0.10587089837306467,0.2069244368671569,0.2746551176391363,0.23489077562745733,0.1785468668483862,0.11282049103652188
207,0.014141503294008637,0.16215898730641848,0.12916281408569233,-0.09886331003362411,-0.04347086332894419,0.14026230249372265,0.09685117945398451,0.19438136350244317,0.27105210476424185,0.2085519294291614,0.15009064139432565,0.10473755568852341
208,0.01159036893450221,0.15543214491846857,0.14255403118611568,-0.08305171219566124,-0.06753910586590797,0.14698554011218845,0.09065878383789158,0.17215087938220958,0.2456392490974179,0.18314082699311424,0.1273187024555894,0.07805616573356099
209,-0.010698169786547853,0.12588186556358888,0.13862273888861673,-0.055857157429049585,-0.07422331562031431,0.1318266147941081,0.06987816795511523,0.15127722728841403,0.20398574233473185,0.16124162022304578,0.10948755434601616,0.07177729324918318
210,-0.00580796563656044,0.11271859526275746,0.11018822032925213,-0.05773396922230809,-0.05792810512006546,0.09773429459462304,0.05412050565793018,0.15302117211510644,0.18093388431240084,0.1506528376539906,0.10136341228924778,0.06302238709656362
211,0.0006269340331394382,0.10469140129538178,0.08541467582049514,-0.06640002602313531,-0.059897795966638315,0.08802903981749084,0.050595033120134095,0.13335652997694802,0.175810362477493,0.13461528995764707,0.08991881036514739,0.05762201164534654
212,0.0006791215057493916,0.08002592519762321,0.05060096646476143,-0.04732822079101455,-0.0435326477011382,0.06144011857032303,0.04712001456371065,0.1256952398256483,0.1578268531357177,0.12837507316028363,0.08934574116294566,0.05302054904053867
213,0.007142107743048865,0.0612075227297325,0.05486632793539264,-0.037155450289606845,-0.016553170982488433,0.0434314595352306,0.041806109469077424,0.11852985149981432,0.14893562724999365,0.11778027354358042,0.0854810017550139,0.0525029060661158
214,-0.017388790348555748,0.06354983463707875,0.03310819744839542,-0.023833878667363223,-0.006004701636426305,0.04143972881959216,0.04278945295029579,0.10046569881121228,0.15000609121361821,0.10912389031974726,0.07726592024221654,0.04843253149635994
215,-0.013259023604508877,0.025829921203395768,0.03466689799861597,-0.008605956328263852,-0.017639247112457457,0.02824086166090219,0.043058384465291,0.08880641797984065,0.13069934521674978,0.10447658221019718,0.07643902056204695,0.041173796917714556
216,-0.006749313624608634,0.029912430997699326,0.04977423498034142,-0.003885027007697151,-0.019584389055184802,0.04941510215704853,0.04571596371015711,0.08935441555896265,0.12033741348201112,0.09292268624503214,0.07659626378291416,0.048181732554006165
217,-0.03513710759402924,0.08472491181286779,0.0830506474470939,-0.021850810730494344,-0.03370263558747057,0.08188023168987703,0.04777269973737029,0.09604894156391974,0.12404416870956812,0.10265010995561685,0.07027273375021562,0.04372098288345544
218,-0.028005100685900806,0.07673035143958398,0.110575729518568,-0.028398887981945245,-0.04402861698120114,0.09823746882456268,0.048076702837855576,0.07992360934820064,0.09814579400756218,0.10212481008939044,0.06283064504114688,0.04043988341289705
219,-0.02391083202758853,0.062431728879146914,0.0806816572977568,-0.020743222368393724,-0.045541927004922295,0.07960791480530767,0.051210020966289405,0.07131959758351514,0.08555723778869972,0.0801531194976314,0.052166745708573464,0.031423376126673036
220,-0.011156507684196739,0.03652542722231514,0.08690043856036835,-0.015703282246607674,-0.03680375386235761,0.0571151621764098,0.024766694681726324,0.06142140823587769,0.09717053213582164,0.06000917166100969,0.04216593972157227,0.030410902562689763
221,0.0006026655521224993,0.006681605081554354,0.03292127773781005,-0.010954956896089621,-0.026820089886083837,0.023898812928517314,0.02536522519825756,0.05829788911556583,0.09466575507260809,0.05870599076984251,0.04050701882898569,0.027449195285344785
222,0.005694315748396578,0.011444148603154555,-0.009646947572683723,-0.02448198858376458,0.000499436815159366,0.0020454309645632843,0.024203084293287488,0.05452811738194701,0.08698480719969919,0.0630849787308056,0.04471285407026083,0.029290860617808948
223,-0.025419272398243986,0.030314506138364013,0.0017826056806272278,-0.016505195074166243,-0.00047868216176653357,0.018588773798295634,0.018784972901223898,0.06550561535100886,0.07575615406151606,0.06192882773132746,0.05017551032787617,0.027754519004670034
224,-0.01502412251789404,0.022442846727892787,0.04528798520241191,-0.007639150073415226,-0.022966622463805667,0.013409582560359498,0.018260458593876643,0.07091356297936016,0.06764734270629136,0.07465303096247349,0.044721655069526606,0.031020011806889177
225,-0.005586682612577495,0.019850024891568764,0.014572544347536916,-0.014507274350990529,-1.7008133977824275e-05,0.014007718805429302,0.032474704134586384,0.06280015884558639,0.05795268492165147,0.06575972275410033,0.05287956412405072,0.03680690174779735
226,-0.001103868521020875,0.01185199932405493,0.03734585207005865,-0.0011396021787723615,-0.010854074130783925,0.034215731012414194,0.009733916558577728,0.05156300341060049,0.04987934950566769,0.04606555457879061,0.04291866731414596,0.011364588301402079
227,-0.018634370787073744,0.030443211663978165,0.06902888246150185,0.010242630497294992,-0.021056622872331093,0.0374056389609056,0.008630606871589317,0.05604651547157383,0.05713003659812717,0.04990924773885483,0.026093399371061338,0.012950263124348022
228,-0.04074023439549948,0.009140206410717604,0.07847114212591745,0.021811515300336086,-0.03244654742813787,0.04208955270205251,0.006153648089740612,0.04669107111151074,0.05514179239585547,0.051524696742726694,0.021225019103285656,0.007302279550414917
229,-0.04336752225980263,0.017517604581527887,0.046752181816802185,-0.00031849356356848657,-0.048243041744894584,0.05163200750575057,0.012191327537156325,0.050386146848173795,0.044225535669037766,0.04109283151229777,0.03271808083162569,0.012436438586045845
230,-0.037372004875280744,0.03413202181347451,0.07041057461609845,0.000536572949397178,-0.04358551946654464,0.04325799139449093,0.007979064971382913,0.036741419525917016,0.02433203979689494,0.03658348288607571,0.02247185499508035,0.016113043765042974
231,-0.020520082364308377,0.015932857754967167,0.045294673743174016,0.00390261163234646,-0.02486894209187239,0.034955075323959875,-0.0032063908624704734,0.03199707500611734,0.02913916103796932,0.04475337250560428,0.01730962699769216,0.0010687562215765736
232,-0.0284609748767811,-0.008921653133201299,0.016463758501118315,-0.001161334139794818,-0.015468141130108165,-0.00676527201652314,0.008434683510240779,0.05866624605746172,0.03469597270962774,0.04502398732981021,0.03808116903559134,0.01156939902582134
233,-0.011189415162829895,-0.003538311480361399,0.001443692023839739,0.006820458475605237,-0.0033451884392034,-0.009297643602372514,0.023994754395775954,0.05629248446078461,0.04868889929647559,0.057784039013358976,0.03676666211552845,0.03153934204144808
234,0.009201052690356638,0.007426247677552046,-0.0013225018130248387,-0.010980954079093743,0.002266941723991611,-0.001718207782871059,0.025031707593937677,0.06085942338249824,0.053351023877794265,0.05897323389838778,0.040096344088397955,0.03368360079302202
235,0.014750196922459562,0.01567103029985508,0.010834748984416474,-0.015956599930816547,0.007278626770782394,0.009995855735797192,0.03340042599170508,0.057768978338054486,0.07412284722185046,0.05038284436306176,0.0443377638390148,0.029678938953514488
236,0.00838852878974512,0.027892231386687644,0.027815154412526147,-0.006214083721643844,0.008250762554403572,0.029623334674458414,0.018077810416464002,0.046264640144551165,0.08923900891231555,0.04799321710054867,0.037584592557395616,0.01569431444439056
237,-0.0010902777454972166,0.02037477174649501,0.060527993912373325,-0.005682624044478876,-0.009975529296659848,0.043157559930799005,0.0252112208895263,0.05170992693876193,0.07091010637494115,0.06562700298821128,0.032501455799946566,0.02092828491440031
238,0.002891934315427974,0.02536248682500217,0.07849760016191584,0.0023669570154488256,-0.029193377598724715,0.05562704347090261,0.022771902457277667,0.04559502314286753,0.06301259199461577,0.045490267581675944,0.029248553706907585,0.01933021701146863
239,-0.00807679601608424,0.025226056605638217,0.07934558641028777,0.0037388051615994053,-0.038217730286206744,0.054044143699380376,0.03342483960416767,0.05063227052980123,0.05191568196090869,0.03547583086140803,0.024969958443808914,0.02673879559600066
240,-0.014563530455613158,0.021553106034568184,0.05068178037475534,-0.013938007045790061,-0.024986628561435034,0.02782634344698807,0.006824864448003575,0.054338556259573206,0.05517887606997768,0.03739913742384579,0.003763607665799737,0.011963424634309015
241,-0.02515911687639507,0.009152673318714749,0.033024045397259255,0.007249865255738321,-0.022512082875854815,0.019080811417883533,0.004673030842471643,0.03743270692658589,0.0577001301138307,0.039257957333534516,0.027450660849008074,0.0033338171160860255
242,-0.028341747949140066,-0.004291341933196836,0.002463500005647788,0.015563188418066504,-0.018797886925866113,0.0011547230790313473,0.0002488181063253006,0.029235815801981063,0.04519463289330386,0.04038476317352312,0.02375152028052925,0.0041690250519415065
243,-0.03289199842051064,-0.03061025588737605,-0.010992083980490827,0.020470871763932648,-0.007346826211168774,-0.023397228967858674,0.01244850327954529,0.03930762107762638,0.07473406609780413,0.03868000711238012,0.02239216241974168,0.02202936499347561
244,-0.033403470521870746,-0.02148542392596514,-0.006252794064661671,0.019584818227486936,-0.003955472775996967,-0.025039978316685266,0.016868921502123053,0.05593316836511257,0.06369656524789913,0.04311355431734576,0.03360443895528474,0.02526319666767978
245,-0.017098240768361778,-0.012267581395416852,0.00412188601354483,0.014582494112048365,-0.0027321564654663967,-0.008798689479109514,0.019438783995610477,0.065742473415314,0.04146246267881627,0.047546479169560465,0.031462626350505576,0.01861565482718462
