idx,I,II,III,aVR,aVL,aVF,V1,V2,V3,V4,V5,V6
0,-0.013373505277351993,-0.007142480669457191,-0.010182605088925498,0.01699914880676061,0.015247020607463035,-0.0016727487784854757,-0.012780969379675107,-0.0025129168248209655,-0.03941736205958015,0.002966825370483303,-0.01079803089788392,-0.02867488013013124
1,-0.015461218054636697,-0.007458614932107192,-0.006935571220344931,0.019237962668778488,0.013166588443478844,0.002059503349611115,-0.008987520572252522,-0.0019165699303162337,-0.04225702985773752,-0.0056198283996854725,-0.016024297171496442,-0.023686020251161753
2,-0.017034625519869874,-0.011551597138861024,-0.009269107971636005,0.02128590853615513,0.010979549239066307,-0.002032024093143292,-0.00859626776829465,-0.002611656981677736,-0.046775488517371636,-0.010293054326808895,-0.019214755200707118,-0.0227669717725239
3,-0.014299661500686036,-0.008094601543414126,-0.007608099892975669,0.017279933903163493,0.007699354562072981,-0.0013623034995097587,-0.0089391947903389,-0.0034490073685005257,-0.048545078873757364,-0.013179943348327484,-0.026470812025135522,-0.02151493838509062
4,-0.016588390684937466,-0.005134938829992587,-0.00024893290265641,0.011875360891138834,0.005039629272712777,-0.0012517058379350327,-0.0070119906697978535,-0.0018270570113066084,-0.048575318708445024,-0.014191230218459097,-0.03244265773045983,-0.022565481739981876
5,-0.018691165629274083,-0.007588438187347724,0.0007063767815058148,0.016249687895072654,0.004075769204387483,0.0019324176669417298,-0.0041026925856125504,-0.0015340243372008316,-0.05089247977864803,-0.009839181817095685,-0.028449429228126787,-0.029788388249443343
6,-0.010813266399194582,-0.007231468262467573,-0.0029201503066121053,0.013641104865708832,0.009319489508354473,0.00472104714848182,-0.011323828024091234,-0.0023714856198774267,-0.0506436636661882,0.0010160495376009826,-0.01665640653424373,-0.02707395152612013
7,-0.011151790349734292,-0.0033646251512219755,-0.0031550024933356888,0.0160953360068011,0.005343464110173104,0.0017974775190106838,-0.00495026154551469,0.011497591140022627,-0.04717737373195642,-0.00015119871088684067,-0.028414564470669777,-0.028703203640352674
8,-0.040081759148698444,-0.018656199253202596,0.002767190512764239,0.03317396615152138,-0.010738212458159098,-0.004711461098824487,0.013872625008856363,0.03518879680571059,-0.03767932067207686,-0.023306134724217713,-0.04739829654307206,-0.03798316152496339
9,-0.07450615442426642,-0.049764765420928884,0.005642320205973334,0.06927708200068036,-0.025967232112066453,-0.017682388830464586,0.17612002853823583,0.12274136959910945,-0.02048087609694018,-0.07094401224596132,-0.1104189649476312,-0.12644128486001072
10,-0.04416975565693689,-0.02819239737647046,0.0001370257651295663,0.043557203048222456,-0.007184856206523812,-0.008330408981738667,0.12055756760163112,0.11836099570744224,-0.038128565949382284,-0.04240186791765528,-0.08291981602080332,-0.07077669415868806
11,0.02675232774749272,0.014883136258574806,-0.016944508873306636,-0.01567333630524847,0.0349570387251343,0.0036553012416585227,-0.14383047441926727,-0.09340465579823116,-0.08568273407395134,0.04370049281843375,0.06686533881306056,0.043579246200140864
12,0.04065765125817365,0.015598580259899377,-0.02400245351812991,-0.021416492957592514,0.04118461086936686,-0.001482846741062794,-0.10801045244162435,-0.07871394130858234,-0.07782612539869274,0.04199306482134829,0.05830360006928883,0.03377003298674196
13,0.019670383269252245,0.0016582850661788044,-0.01787959328514269,-0.008405823717635014,0.028015870081720205,-0.005477442189575174,-0.07085404318885524,-0.05353040153503917,-0.06919899637999871,0.023384227652374488,0.02877167293655374,0.01179269069369858
14,-0.009617435738181794,-0.01525231957114892,-0.005662527838499487,0.015891785201309627,0.014331931831890746,-0.010826520012496853,-0.03674581287845183,-0.024363571668572497,-0.06583877124040138,0.008475201143799384,0.0004441944734351194,-0.01780834653008042
15,-0.022511546224723376,-0.016291608338562386,-0.0016220932923545258,0.023476248001415425,0.0053690197044307135,-0.0015949959962719557,-0.03755855251831098,-0.022353109800414855,-0.06858590876392884,-0.0008982590276772756,-0.0005216903702548494,-0.014908015671685853
16,-0.019480926209260816,0.006069342769562405,0.010251615684852165,0.014361821535804897,0.0023855590925996126,0.015261606282425833,-0.05025128894456975,-0.04310400214780663,-0.0775049239689572,-0.010633494690287695,0.003970618713643299,-0.005533572720993404
17,-0.015622702011886255,0.018139165167708145,0.013088469612496226,0.0033794419374164504,0.0021627679714991445,0.02254184973403698,-0.06159470801679409,-0.06256038304891041,-0.08647366501956238,-0.014454556553524095,0.008070666637925016,-0.0032587887193785275
18,-0.00032223213730456224,0.021440727985921077,0.011979368649445113,-0.005753537153594616,0.0016727003933518477,0.023549513070024404,-0.07170763546339663,-0.07698021264244666,-0.0957867922726596,-0.012314388763669644,0.016103576702502724,0.00376677713078819
19,0.013592599773616435,0.024795663365252553,0.009586449827581514,-0.013602474702058642,0.00760315884523318,0.02437396382351157,-0.08634122888496557,-0.08752230758268519,-0.10695539530876644,-0.012464696386750705,0.016789375260132133,0.013467264625334808
20,0.01016361022215087,0.03064473593081783,0.010175361021945516,-0.01351278880055615,0.015551832400345501,0.02883330879465463,-0.09807339249935663,-0.0922399497358271,-0.11508066095319487,-0.01877335966247979,0.014358634922131328,0.01692432754185564
21,0.013288657302579701,0.036004258298752555,0.005764073107673357,-0.019350640948945258,0.019319924721795792,0.03242613788810075,-0.09879854775981048,-0.08964174533684323,-0.11340665081436836,-0.018050463900806994,0.01759563417446376,0.01697284620323801
22,0.013430923340648816,0.045903746443371786,0.015534904459581469,-0.025546920281538467,0.013006024578195843,0.03525694338839486,-0.09561603931132218,-0.08649653498121708,-0.10854245748554929,-0.007640889281220843,0.015561707502572186,0.02409489502361068
23,0.017152513098467104,0.054973577073395105,0.023974094705602397,-0.02687193802385244,0.013181417101598761,0.04757384819697292,-0.09471261672194822,-0.08171224854974816,-0.1046536986167995,-0.003341436242934717,0.022233622312642955,0.02341148246191169
24,0.01301290543662711,0.06470130530131751,0.03184216500728461,-0.034938017197283205,0.007148458719384821,0.05983321332255888,-0.09789436116086955,-0.07960622458335512,-0.1062325606701236,-0.002761723246893756,0.020398458582597853,0.02629489168255209
25,0.01703630967168457,0.07565505085790528,0.04448178356564862,-0.04102958759104,-0.00018660750796727597,0.06520388152291026,-0.10191039274826498,-0.08434228293057974,-0.10889672415615953,-0.004422363479498544,0.02958923682803407,0.03152725032138273
26,0.012355995436419968,0.07949455698748695,0.05322638400147354,-0.03688141347562892,-0.011574492077640759,0.07759584799032117,-0.11232985657816316,-0.093416663477065,-0.11197535873683663,-0.0073651542931475605,0.03019550354413688,0.0343215001166509
27,0.015570821185613313,0.09750048170371009,0.06226275352601458,-0.04984244994963008,-0.013658247802678245,0.08921410796669027,-0.1216496768991899,-0.10216455538524086,-0.11835010026077741,-0.007581439981040057,0.02904668815901668,0.04311404820183075
28,0.028293349168038023,0.1244211908454631,0.08201406353510435,-0.06807362033869117,-0.01378462674277037,0.1048761052690331,-0.1495085885591051,-0.12504436407592934,-0.12897172423567588,-0.00024390617152373478,0.03926994718504146,0.05989668838412006
29,0.035558935567225655,0.1560825514077336,0.09187187375077266,-0.09210576101168017,-0.015225667509737598,0.12644168641955278,-0.19626954905370525,-0.17089109385325216,-0.1422353965043192,0.009857476163140817,0.06089311063198251,0.07782546125594916
30,0.05943832932931825,0.1792111057450479,0.09698786068290055,-0.11420577019675647,-0.0039046258061857606,0.14613952425103277,-0.24170304433088724,-0.21870676294980926,-0.1551744480993308,0.01713654383037269,0.08274326563708323,0.09407670980720086
31,0.07629831861189905,0.18565892857089145,0.0925954723332045,-0.12440840024645287,0.0064675615185515595,0.14834444888404735,-0.27431709636978685,-0.2449120756144284,-0.16500862781284437,0.02753503276458541,0.09855624798718864,0.1113919673605616
32,0.09516029620163649,0.18771221185290968,0.08566322489777464,-0.13077556379289612,0.020527316132648105,0.14526805446218255,-0.29891664404734697,-0.24325644112700637,-0.15832741788425947,0.04892635617447559,0.11331468142740245,0.12623958966933907
33,0.10592072616054689,0.19423337313780867,0.07473217385809065,-0.1417056033124644,0.03387312584314352,0.14328728555491785,-0.3228937607154544,-0.24894669354833454,-0.13248211131474522,0.079883096715345,0.13259087754452858,0.14772993571177728
34,0.12734723277123777,0.2089624307435953,0.06549065193956033,-0.1622468225996207,0.050572335721195204,0.14393137519695243,-0.3592847533068927,-0.26487582018260764,-0.10584842890225701,0.12504331620850812,0.16905781726941715,0.1852895326738515
35,0.16714978744237455,0.234415441827223,0.05892880419706798,-0.1959025363983265,0.07537532843019366,0.15132271714791778,-0.4074927943168276,-0.2805429419478797,-0.07294455090824609,0.18017306098048844,0.22884811323117116,0.22530399078582303
36,0.1972024039989273,0.26533718416864194,0.05545372068585037,-0.2223359928852713,0.09075312389029876,0.16411892870062422,-0.4562413812029533,-0.3024262553871089,-0.04168438246810695,0.23549856862381918,0.2937883229570066,0.2711931125678566
37,0.22740424304066678,0.29417624957286664,0.05670383850494255,-0.2499832149807345,0.10449767495840358,0.1793176503144789,-0.5086449031948468,-0.33484859148128737,-0.019223232372437442,0.2969136266819373,0.3534345197810176,0.3201587305862312
38,0.2708802354088311,0.3260573955998098,0.05499529461683189,-0.28673335349755313,0.12170094326696937,0.2006140480694828,-0.5735897898742549,-0.3862609007155608,-0.009965250018820846,0.3621570010062596,0.4164181883238388,0.3765134984046385
39,0.3165626172091639,0.3644936980025322,0.044530907961722516,-0.32948521975823813,0.1466598257451538,0.2164593311626112,-0.6446222066342807,-0.4312963981731285,-0.006098547981426339,0.4311293815440085,0.4932009615839449,0.4408317556280989
40,0.3659221441419258,0.4138843746069001,0.04027934693623514,-0.38158936445923625,0.17584225381801313,0.23414495036480557,-0.7123484832883338,-0.44913307533748886,0.01479076888198276,0.5020603045722007,0.5748020740831309,0.505615294562678
41,0.42715697059273655,0.47945816004201225,0.04724535557471175,-0.4454134961441423,0.1956788994491233,0.2766565188796319,-0.7677865734250915,-0.44553102566967423,0.06340835621404758,0.5823054775300126,0.6689955092742772,0.5758837718507581
42,0.4682646371510807,0.5579447244859206,0.07303648450706013,-0.5115697393695796,0.20763592120776211,0.33168666305271843,-0.8117418721414512,-0.43250820223798053,0.12948059940050943,0.6753238654404642,0.7733406324698295,0.6402092201241945
43,0.5094858843254004,0.6279208278712562,0.09683131332439754,-0.5570793494835905,0.22339340572185223,0.37423566649694473,-0.8351714975699351,-0.4106092668072296,0.20970048040945782,0.7839049565262659,0.8687496509579682,0.7072928810302568
44,0.552330812490205,0.6846504704824368,0.11400481523457312,-0.6082565044793449,0.23560050355252066,0.4099659142426595,-0.8471036265306533,-0.36225722015787853,0.3003679745303916,0.8928421972767455,0.9621950638003244,0.7759688860151837
45,0.5901956471694341,0.7368642990997097,0.1333774401795075,-0.6544827470991058,0.23802670581072316,0.44368710202389694,-0.8502027995391283,-0.3102405968822044,0.39462674902503836,1.00150517089324,1.0576864734365026,0.8471292791491787
46,0.6188405183325874,0.7909353076338409,0.15941804898103767,-0.6963273920191149,0.2366923386152036,0.4842427036390077,-0.8538785458217811,-0.2626478537702624,0.47665406731375515,1.094028698922335,1.148133714310069,0.9163975199877494
47,0.6386262210781164,0.8579184659389314,0.19854340073837984,-0.7439291577676284,0.2296365785379994,0.5373351418693447,-0.8474258284243796,-0.21450478860990263,0.5419510837760254,1.175174755157959,1.237384443104729,0.9828895451328505
48,0.6619757190927817,0.9388193328261921,0.2607457277514812,-0.7958709624259643,0.2113392153192048,0.6104174538687959,-0.8352098147730445,-0.1556959672294224,0.6150225873609675,1.275359154257603,1.3492409988318868,1.0647357138883242
49,0.6845829346722914,1.0333332030815308,0.33040535349576483,-0.8528650288847024,0.19363189061697916,0.68893631711392,-0.818732021125673,-0.09677801576505805,0.6866756176867761,1.3900724960131798,1.4817316968207732,1.1659609493780363
50,0.691726426315532,1.1189133712391564,0.4095830632929671,-0.900705331640789,0.16305858759641245,0.7661941671758703,-0.799739607707451,-0.05524400706937159,0.7359385510990152,1.4910470734148666,1.6038659198749632,1.2723847386694906
51,0.6967556090151756,1.1730461131345955,0.47393944968777835,-0.9237857099177842,0.1372903848767486,0.828643025965947,-0.7585505432070915,-0.024312236375427995,0.7536748382714262,1.5583147571609692,1.7044053781920803,1.3645255109093004
52,0.704786906768816,1.20452978156249,0.5115154359516987,-0.9543030752858532,0.10947576073249095,0.8683855125228137,-0.6899917986030852,-0.0023423441755915445,0.735646543246186,1.6068070835489685,1.790786574991499,1.43684880506467
53,0.7043774694081125,1.2357291228237006,0.5359429954167909,-0.9758102786047703,0.09046016387161429,0.8919258712370199,-0.5938000852861418,0.026540574280062644,0.7397826063690659,1.6667199307810256,1.8787733171851293,1.501153750844201
54,0.7105125332799138,1.225175691919124,0.5206275034252414,-0.9575108228428731,0.09860204966563225,0.8812665369383053,-0.45983123135203086,0.09793710954333233,0.8016418519244732,1.7738256918110435,2.0027800430282867,1.5581585366463353
55,0.7105964022026285,1.142110352801438,0.4172325082095546,-0.9151380119495518,0.15494096748438158,0.7876105387516446,-0.2682945996459556,0.20593921284118383,0.8931481187888718,1.9231072610403541,2.1593148865890925,1.6036937846873036
56,0.7126558238448866,0.9678813600210883,0.23447173899162022,-0.8388826103113616,0.2501518328744847,0.6086168518819627,-0.08832651278013115,0.3242046165531789,0.9952779061650839,2.091815271224494,2.3238442917054223,1.6202017674260978
57,0.7249680060329391,0.7888509734277264,0.03878230763712903,-0.7619678987032258,0.35862039039417193,0.41557432783714304,0.03986364382625691,0.36436434117854044,1.0934489818815478,2.2607091904205596,2.4865817043240583,1.6369528695772835
58,0.755400278786695,0.628773041998564,-0.14833683714789864,-0.6824010074754123,0.46073261161958545,0.23866954885497302,0.13268969874601153,0.37194119354747995,1.12595418809626,2.4246956970713445,2.64819391687468,1.6464731782020088
59,0.7844220978321321,0.47309036573241203,-0.3060053600540927,-0.6144978293294793,0.5532319401847775,0.08913029993490398,0.2029041182488667,0.36118511934721365,1.1306579033411333,2.5648057881975683,2.811323943750891,1.6679747518778534
60,0.8041137357335477,0.3590924142203921,-0.4276106553536707,-0.5669187770073614,0.6243875651427979,-0.023000267223733405,0.23897090540499857,0.31443320754809334,1.1148242773167545,2.684286561283944,2.9812333191783247,1.7097640977085091
61,0.8331108023381164,0.31104833110243063,-0.5164691380161448,-0.5555781255872447,0.6823204127303435,-0.09260937226065001,0.21340592094196226,0.22634679574417102,1.0676900691295867,2.8052794648990806,3.1793503974364423,1.7809916877710923
62,0.87196797225651,0.28966602505500855,-0.5858118090466063,-0.5651541188644607,0.7382109376967827,-0.14405478974501956,0.1331337672496975,0.0785112689306872,0.9839961829760797,2.9310125726426777,3.3962535725364713,1.8715142268717577
63,0.9007020199481093,0.2632864365976336,-0.6438528424208487,-0.5784935731854508,0.7831974039174228,-0.18019312728084783,0.021077282286773618,-0.10911408145841855,0.8532159435624764,2.9392949033127556,3.5078666122488946,1.9208510242131314
64,0.9087065483577814,0.22521068283189716,-0.6763889667184311,-0.5721088708726612,0.8019926066613106,-0.21149631808501593,-0.083265417219942,-0.2871876771977222,0.6781936042160646,2.807626404643909,3.4661606459282455,1.889891455541776
65,0.8914908805529609,0.17662111038080977,-0.7225897928033812,-0.5291527336993302,0.8183400098940043,-0.2739170503739442,-0.15474859650902284,-0.3954446550034664,0.5071020545643364,2.6226627721288054,3.296644713505349,1.768311324736319
66,0.875070439353737,0.10365893660559952,-0.7727333729975927,-0.4858189589354165,0.8344211739499352,-0.3302539163318601,-0.21237317056313013,-0.44039489913621965,0.40589592316070777,2.4617414096680603,3.1028327725457374,1.6222705696554094
67,0.8524860227059023,0.05280817316172928,-0.7951190170410376,-0.4459810014370181,0.8384355539512485,-0.3677653874970661,-0.24707874329487825,-0.430893340704887,0.3235231044529817,2.31666065372843,2.919215160052697,1.4900398275745514
68,0.8219466707413243,0.019373189854911575,-0.8109907849399526,-0.41184581824543043,0.8344373768397435,-0.39397278205033015,-0.27265650440102984,-0.42747685283391534,0.26752309130315677,2.155712067627042,2.727687752273682,1.3806127504245727
69,0.7994602337052443,-0.014395363968939777,-0.8277319666629788,-0.3866603437751912,0.8234826497322834,-0.42414456129489825,-0.30807479264681403,-0.4510854839168831,0.19196382200644585,1.9395058341804559,2.551845731681039,1.285580333673849
70,0.7712881471121076,-0.055681133265868134,-0.8401565772531762,-0.3517862679266871,0.8133919412740132,-0.4506642128972769,-0.3479887603995874,-0.4787147840453192,0.08582469026054008,1.700980910142017,2.3642682076949026,1.1949036543521205
71,0.7420098430771889,-0.08761244402554726,-0.8353599747938443,-0.3243687621259308,0.8032138665225411,-0.45632550048314147,-0.3828921563422647,-0.4871801776420621,-0.002105905814464213,1.4571412779679207,2.1426015300266052,1.1036523329154215
72,0.703971011852729,-0.1172722480491268,-0.8131593249075413,-0.2841317897439114,0.7716453226572264,-0.4590712702112344,-0.4016477223235999,-0.4758235859203784,-0.07933121042120264,1.1832917380375672,1.8960501968583372,0.9908954193745173
73,0.635996766352595,-0.12544365256550594,-0.7637339584212779,-0.2544061047429189,0.7112317393920087,-0.43830505370963946,-0.40044185051799175,-0.4502474049780229,-0.151933981681313,0.8952056614335049,1.5936595718226774,0.8642252793456833
74,0.5602150558046178,-0.12065736971319527,-0.6865677026975103,-0.21392778663466666,0.6372347784981774,-0.3893883213980812,-0.37669178273477916,-0.42577729098959416,-0.21354910926042037,0.6299889226368621,1.2759284086268503,0.7356237930859866
75,0.47200444019462284,-0.11383542121221157,-0.5993603477000415,-0.17145876251945144,0.5613365248083493,-0.33860978237178185,-0.347505255619449,-0.40640017222818037,-0.2858437106233749,0.3708408729325089,0.9526357030446482,0.5850634227805516
76,0.3596995655456426,-0.11192478642139703,-0.4944595302334502,-0.1192005377195266,0.45777037893747674,-0.29746215550639193,-0.2951082091612083,-0.3783948089586172,-0.3413066057432388,0.0928630173774111,0.5779102587395757,0.41511251883585715
77,0.25568703085333544,-0.11767310353523949,-0.3854712597539057,-0.05973019952695821,0.3437360251229829,-0.24624165083050192,-0.22426526071696376,-0.3325207718709861,-0.36574063710019034,-0.0822313503521795,0.2663223466796847,0.24696071342640907
78,0.15556864399441178,-0.12332509430868613,-0.29557462985235516,-0.01405262136662121,0.24329568590496725,-0.1975927346413571,-0.14925491475741962,-0.25922538304884896,-0.33391794663702923,-0.15503243754867618,0.05985936921314287,0.10825906500422086
79,0.08327351283398603,-0.11984202788430601,-0.22359510814608882,0.02010022674972085,0.16607789377973448,-0.1649737763494591,-0.08703896233889948,-0.17161572623140076,-0.25972201563851827,-0.15761528809730957,-0.05676822864350213,0.001647332425588486
80,0.025673175905791375,-0.11512547453371158,-0.16287292924312252,0.04686925579254772,0.10951877298635192,-0.13756361368226816,-0.024482145930757586,-0.0823079223964049,-0.1801085162144478,-0.10869486689997386,-0.0808203781978075,-0.049903296424635195
81,-0.0018333194668275436,-0.11089866989162561,-0.12283487253053596,0.05927997360577873,0.07259844739044466,-0.10848792230975442,0.023813906441564142,-0.015587129625224183,-0.11524529119305245,-0.06802306604214761,-0.08432434639996352,-0.07976802823584124
82,-0.02476489384348572,-0.1038793991243998,-0.09208316467408922,0.06978307211373483,0.04507280893636699,-0.09674024617626986,0.059963598874015395,0.039546076601630405,-0.06884080576890364,-0.04766113328288299,-0.08889350582442988,-0.09378628545293541
83,-0.04312318244752346,-0.10637496883486744,-0.06815684378757778,0.0740516141139762,0.03251094267926215,-0.086886005299907,0.08889409332009357,0.07442357892755463,-0.045787384152589,-0.05314643280207333,-0.09766478666632472,-0.1046457564629795
84,-0.05460536386697855,-0.1025117267558005,-0.0575470755771003,0.08034943137392069,0.021131421678303355,-0.07703814298144986,0.10432235165654147,0.08895154032277205,-0.0314375916067361,-0.05190014697057305,-0.1178958876970341,-0.12487059911730482
85,-0.06677273505754455,-0.1039105076546715,-0.04825142696842982,0.0849482731550296,0.010572952444005551,-0.06491003650766347,0.0974616968415391,0.09190811690761125,-0.02700539782475063,-0.05791045638907258,-0.1389320880495843,-0.14388052017357272
86,-0.0839255607854891,-0.10673871087165815,-0.036329453955693175,0.09801084984481893,-0.0007561786686805291,-0.0641818342375463,0.09748578277608871,0.09232216980955617,-0.030691651193227053,-0.0679625069957209,-0.16112343814938007,-0.1512966973665419
87,-0.08566429877601414,-0.10613937277623438,-0.03251037643884723,0.10496782877330303,-0.011350258361544923,-0.06348185335700071,0.09738327636293383,0.09400250260155608,-0.034342778547330616,-0.08034726519826688,-0.18251133164136832,-0.15843587281731863
88,-0.0895014211315669,-0.10753710532375312,-0.029748675539974907,0.10727593388949062,-0.012012720520443252,-0.0597528739175139,0.09236160684786901,0.09958607146863316,-0.03714142152949694,-0.09691750331890218,-0.19494250353212125,-0.16529429721777195
89,-0.08884439911701664,-0.10073155100234348,-0.023263937299010225,0.10603795603721239,-0.016471677938778368,-0.05602472987795845,0.08620288933607398,0.10699791561554103,-0.03913036595422474,-0.10964827586678119,-0.20668402226915725,-0.17322541680002318
90,-0.09479466397442671,-0.0996086927770396,-0.024924903907701912,0.10321948749017289,-0.01611955239190727,-0.05697042782370623,0.08677552755954893,0.11059565552051481,-0.039300434311341864,-0.12030638117704094,-0.2182212038266239,-0.18143190818063465
91,-0.0937282833883451,-0.10627793631001227,-0.024548125233995955,0.10062974681156167,-0.02429386445897689,-0.06375853858766056,0.09169425275282064,0.11348953121901545,-0.0374927302823201,-0.13206963107805283,-0.23006395839798197,-0.192840503184404
92,-0.0940159502736864,-0.11533967687623553,-0.022366003454179363,0.10679613455511852,-0.025066608908589718,-0.06263096302231512,0.09590563601471044,0.11564596797859406,-0.03533349508063571,-0.13747352167745158,-0.2435127864482689,-0.2000921325178034
93,-0.10180013141097166,-0.1201749629666039,-0.025364159630074667,0.1212107126146682,-0.024582224864300437,-0.0637004764633794,0.10581918962353523,0.1173380180893348,-0.03555343428064794,-0.14182801072504264,-0.25800664344900515,-0.20903964334310415
94,-0.11245571885320933,-0.12165855820565949,-0.02766905780064567,0.12136881132858361,-0.026776894574152228,-0.07119575890462441,0.11415911315657845,0.11964482767791174,-0.03562141281597648,-0.14217937406017317,-0.2683359977248724,-0.2115677802362863
95,-0.11352554328733426,-0.12354845155213265,-0.0246163518725004,0.12100576589765885,-0.031189003326415575,-0.07200094958978787,0.11564241733318883,0.12255247480696554,-0.02894207582338449,-0.13838877193441818,-0.270607373208292,-0.2172977211897381
96,-0.11360236594460364,-0.12034250536448235,-0.019296376673976386,0.12636120065882112,-0.03361025031607887,-0.06153361094099693,0.1134073720662459,0.12505799380346172,-0.027483415421596637,-0.1359670922312412,-0.2745542813505884,-0.2193416336370735
97,-0.11522930830092908,-0.11582231760265282,-0.024307967855504844,0.12503762644193583,-0.035099249159575,-0.06250649342249792,0.11151081667740778,0.1293573648073334,-0.03123551536615298,-0.14006413513073684,-0.28074636180239665,-0.2260162097976163
98,-0.11704093661665285,-0.11384206411195613,-0.01593422576470686,0.12437075829225426,-0.03875803548566653,-0.05736903836758595,0.1108958101013657,0.132836525424412,-0.0333691979660729,-0.1513668704126369,-0.2854241129362167,-0.23395364763695314
99,-0.11920431643642644,-0.11243236465850352,-0.016425507500679434,0.12374097350199809,-0.039836220286060306,-0.054443226082215065,0.1114219650995043,0.13451422904963473,-0.032020967805282206,-0.15834751589462479,-0.29020208425083216,-0.23664773133938743
100,-0.11513609126316678,-0.11615857079823269,-0.014205994184366794,0.12201694591415062,-0.03769843062157075,-0.053073782094611166,0.11627720756601802,0.14534643991305407,-0.02931984351515715,-0.16020670763838302,-0.2924524673867206,-0.23924534082132545
101,-0.11751102818311415,-0.12620967713304787,-0.020411827585091972,0.1302446065031795,-0.03649389253346409,-0.058395344915886827,0.12168365228348342,0.15870018852901188,-0.027399291169096916,-0.1626582715287926,-0.29253361663467403,-0.23108444450675913
102,-0.12224923910097292,-0.1310024092970545,-0.025286275043840224,0.13787188607282036,-0.03086053748224747,-0.07075103014612785,0.1274254859478824,0.16843789186965535,-0.02242996803402355,-0.1627351951261415,-0.29443640799788956,-0.2341967193167546
103,-0.11994933412338385,-0.14479073488648858,-0.021687756773249,0.1359210186885838,-0.034104381521386305,-0.07593790223322174,0.13557360151721978,0.17382426658355865,-0.015319101697255783,-0.16320825089260035,-0.30039328919444697,-0.2414291445000325
104,-0.12586062874559417,-0.15089090326859717,-0.022573195468906095,0.14270529856932537,-0.03091905792803769,-0.08096559860401654,0.14292523393264173,0.17600951998224357,-0.01050529572781959,-0.16399340466119047,-0.3049264270616715,-0.24864024609012841
105,-0.13464664028713197,-0.15111088574162443,-0.024462376466135007,0.1490023767958064,-0.03831179889585129,-0.08264722787728977,0.14218018791829862,0.17707726775316857,-0.009619678038122997,-0.16729063159153218,-0.31078734202307545,-0.24743589953561518
106,-0.13075819332253333,-0.14758606978298688,-0.023524279498021744,0.14654242874038803,-0.040206997833329206,-0.08282767400995908,0.13467925645956116,0.17887758845079965,-0.010447986257912698,-0.17116331757669512,-0.31652881217034323,-0.2523737525619937
107,-0.12917292883386036,-0.14481486416544181,-0.024437700311901536,0.14417094775615752,-0.03821360743579454,-0.0758795065159734,0.12889346745615035,0.18199348624243522,-0.011580189394826367,-0.17559263846373868,-0.3196943683443223,-0.25854312463441753
108,-0.12893655213462762,-0.13642305463034804,-0.0240589066504694,0.1374635781943775,-0.035324196990919474,-0.06924094033932555,0.13187253308509023,0.18879400839946142,-0.013981337947594277,-0.17932339512871293,-0.3244357033380844,-0.26248107725420244
109,-0.12758099193733097,-0.13082530144969007,-0.02262564976068433,0.13263328510553057,-0.03654693169364613,-0.06520157429912746,0.13615402201795906,0.196140660969912,-0.011622712652799943,-0.17919289471688712,-0.32795455987749234,-0.26314196826484226
110,-0.12445154504659955,-0.12467931082231788,-0.017632485353978686,0.13148451889835944,-0.03947926139971999,-0.06590692196577529,0.14120171841322338,0.20286651388042,-0.007470949106208512,-0.17864833430772303,-0.3323693453048989,-0.26449952889212663
111,-0.1285912867298556,-0.13334315455945464,-0.015011347459517516,0.14274049973479075,-0.042906443047940626,-0.06901620091179218,0.1464121659358037,0.20852808422929292,-0.003363322232393419,-0.1798164343600677,-0.33824955229775455,-0.2681246411590916
112,-0.13676968006868168,-0.15190062150603756,-0.019463749031721794,0.14928570684838488,-0.04162300883877783,-0.07752829125414222,0.15420273207697055,0.2154975872256248,-0.0013065783751116666,-0.18367387260233523,-0.34525456815559086,-0.27130357311914266
113,-0.1460937362722244,-0.15909859274110588,-0.02850836906292211,0.15677207959922929,-0.04384372193036762,-0.0845762554849598,0.16311624761829013,0.22414475778845339,0.005362679582865248,-0.1878577222376814,-0.3528029996794282,-0.28131468812872573
114,-0.1397250382319259,-0.15913973987364533,-0.036630071461546905,0.16184561690481863,-0.037583978614092,-0.08847423012716486,0.17042674627394405,0.2314691299577838,0.004100109136360934,-0.192926407105992,-0.35646010393845706,-0.285120828762758
115,-0.1424254290486967,-0.15713374290123389,-0.03577283118148814,0.15864985239298182,-0.03646207966160184,-0.08853322555988566,0.1778594548091532,0.23651360252659695,0.0010695262808066881,-0.19661716122153747,-0.35642802731280276,-0.28223707081426724
116,-0.14203754811378433,-0.15582169777942018,-0.028206329789421426,0.15379245148216453,-0.045588913450542466,-0.08450856278900516,0.18482893203189796,0.23694101239190207,0.0006936797552629069,-0.19926654729662785,-0.3585274088387636,-0.28994283472545057
117,-0.139275702723204,-0.15292337547119628,-0.017885962743904985,0.15263394777346084,-0.05022267107351168,-0.07660184589322876,0.183908734989923,0.23394969141251257,0.002991362200111102,-0.20469825371466155,-0.3677358877423347,-0.29864850933238984
118,-0.14764394062936817,-0.14618709601021107,-0.018177390913475037,0.15342022081495565,-0.05115956095612729,-0.0749890477461968,0.18185931918026366,0.24020550262689006,0.004824671394869352,-0.2101739280749559,-0.3746715396227878,-0.30350393684809046
119,-0.14836319299181233,-0.150171374269157,-0.019995887784055987,0.1570775475934378,-0.05040053766307634,-0.07763478111390484,0.18167133105320515,0.24850606393148383,0.01102170769787576,-0.20726100838090808,-0.38080321477890966,-0.3075738906535646
120,-0.15334342984507704,-0.15647667354292194,-0.022220993426602817,0.16140174275672114,-0.052511955547633,-0.08025931355561752,0.18438976838807844,0.25995618865543524,0.01632270139049141,-0.20921942405648844,-0.3898507149205289,-0.312326282804298
121,-0.15587580888335711,-0.16423310911718694,-0.023359855838544195,0.1697037261023665,-0.05564892035828003,-0.08719966521632512,0.18767131876360074,0.26807014042137334,0.019539672358171885,-0.21419051015788793,-0.4015704493064828,-0.32160842382966326
122,-0.1612027642256429,-0.17098553928740343,-0.027112278106753526,0.17374774212927394,-0.05605134817064476,-0.09373225628134738,0.19074886474947061,0.2746527841568479,0.020743124618565003,-0.22769558368718765,-0.40968187123463307,-0.32705076193822996
123,-0.16201347249919207,-0.17514446015077406,-0.020004959023476432,0.17956290746461417,-0.0543812834402807,-0.09356501260802798,0.19849837039908552,0.2806134873683854,0.022588107858488596,-0.24028444874940347,-0.41920604684888585,-0.3330300427970603
124,-0.16953138745689034,-0.1762463403558473,-0.017182574706190036,0.18040676192592756,-0.05435799765680101,-0.09357039010526293,0.20934676039511046,0.2844956677775833,0.024370962266377597,-0.24953486215397536,-0.43133843845903136,-0.34168644223092925
125,-0.1673355588562544,-0.17847525639714484,-0.01867068737648943,0.1810494104254236,-0.051547436947207134,-0.09821439048314569,0.21678382370473825,0.2876624581448371,0.018377467539068267,-0.25414749961923566,-0.43834953408993327,-0.35118914249066213
126,-0.17012751338995935,-0.1794212961035936,-0.02356890354115668,0.17562814483165495,-0.05882445583218138,-0.09817231708560487,0.21864283760895992,0.2868898114900328,0.01989248722679475,-0.2640075089280044,-0.4468581461515602,-0.3597727995930085
127,-0.1702474321327151,-0.17484270293844267,-0.017734031346079995,0.17922833578222042,-0.0611862228309676,-0.09344142150952875,0.21560695351879494,0.2890014052168976,0.02581034633916457,-0.2685219307894241,-0.4611013824204005,-0.3605714741980276
128,-0.1800423895777964,-0.17681947384594243,-0.007414774284567431,0.1866396416061991,-0.06260512046780672,-0.0881311882683148,0.21562358804856158,0.2995622486554116,0.03245063602481964,-0.262443983351192,-0.4699857952099128,-0.36242737069913883
129,-0.19313247282501428,-0.18267537458456531,-0.00016862548560076657,0.19083430365703202,-0.07672253949670205,-0.0847253418011464,0.21727629835554715,0.3130014658583866,0.03530674546899517,-0.26103259366124193,-0.47322296312995243,-0.36521223696455024
130,-0.2020084227490045,-0.18215878327679308,0.004942323220675213,0.19851474725504428,-0.09122390362968556,-0.08223155095063124,0.22557138953846315,0.3291059617684357,0.030104720292926792,-0.26962406349430934,-0.47317708121411683,-0.37497320473862256
131,-0.21122081442360646,-0.18438178503987535,0.002220752639068282,0.20695447071212497,-0.09751546450038626,-0.08155676722701599,0.23431032119744644,0.3419287548189268,0.031242200942317198,-0.28435904975959947,-0.48650867137966736,-0.3960623454006892
132,-0.2108964681577173,-0.18642950335234315,-0.00026493745368459144,0.2048373959776304,-0.0892078500386447,-0.0847041323533419,0.24084577923361494,0.3441075004184644,0.03925072538158165,-0.2980638480747555,-0.5045093923489967,-0.4109434532534774
133,-0.2046243710351614,-0.18812456143196477,-0.002869933001289564,0.20512134400580112,-0.08303278945228247,-0.08799483499589388,0.24986952922888273,0.3422344502955442,0.04651379084840422,-0.3075275758900183,-0.5252277930487202,-0.41676742308611914
134,-0.20200867094955882,-0.18917592949161866,-0.0012068917933615204,0.20164785453076386,-0.08015483651297965,-0.08758049678718179,0.25747937780583063,0.34764312970259614,0.046784903116322565,-0.31879897868732726,-0.5459661157526834,-0.42629467509359464
135,-0.20500477415045526,-0.1868101681521443,0.005716514267550654,0.2023668837394318,-0.08504835616647832,-0.08518339318867862,0.2619907443403783,0.3571291112858444,0.04544758619286426,-0.33457011556558786,-0.5620683278905476,-0.4337923815246368
136,-0.2170705154646691,-0.18486060861084513,0.011748493019667993,0.20572625588339322,-0.09723206796583203,-0.07331435145098625,0.2629553977698778,0.36157915386777806,0.04496225433086741,-0.34532411452606027,-0.575205950884333,-0.43554031302438817
137,-0.2271998659283081,-0.18281257002275064,0.029768677009494048,0.21112962501000088,-0.12011755881543507,-0.06851100113637895,0.2645067355691404,0.3708361926818215,0.05122271992270436,-0.35209178103201755,-0.5877791516256653,-0.44571698194138
138,-0.23279658183930504,-0.18141246627413146,0.04173957830076224,0.21820373773779986,-0.1347972893892018,-0.06222064939399852,0.26914853741989786,0.3935949389415561,0.05685862974847869,-0.35840639338806635,-0.6005303478927086,-0.45760121654942976
139,-0.234570496544186,-0.17670685471536834,0.04581920955216456,0.21829014147622164,-0.13688717583087612,-0.06171521069163987,0.2746462371942934,0.4086468480719726,0.06237813443112104,-0.36612958010412244,-0.6129359652144847,-0.4707699525347473
140,-0.23963360616998847,-0.17780040397747954,0.04526062691269862,0.21481523936504449,-0.1304832548015652,-0.061797388793521354,0.2794077662974927,0.42215661036863134,0.06725747454152153,-0.37657639102148116,-0.6307323802908937,-0.4868200194417644
141,-0.24321207288931307,-0.17877407171307935,0.04924622125274721,0.2175157497614187,-0.1309243732586836,-0.05816606313296946,0.2858093659101264,0.43331691748236295,0.0653970071237545,-0.390910422080356,-0.6502113823149971,-0.500242181625685
142,-0.24694255166912032,-0.17558944683227,0.056131714609071785,0.21925222012544618,-0.13634124620804983,-0.05421657333992937,0.29445624876878257,0.44441945871548766,0.06389018304191452,-0.4057507444435468,-0.6705096973550846,-0.5050515968948373
143,-0.2561249933755142,-0.16706298874227044,0.06900212826201729,0.21730068239079137,-0.1438979667798865,-0.041560839509277844,0.3037896590424978,0.4562700370424723,0.06872379493382615,-0.4193283081808618,-0.6925572228087018,-0.5089516113831556
144,-0.2594672643758188,-0.16170227917941235,0.0803000560131665,0.22042266657284687,-0.1540635239043138,-0.034879468102329766,0.3116867950998041,0.463556121681598,0.07189898549124249,-0.43939214494749157,-0.7144642384052967,-0.5091815505605342
145,-0.2582040495744481,-0.15746062214604195,0.08570318495642656,0.21973988749780482,-0.1567579786882652,-0.027272262714360923,0.3171553605502291,0.46737114234696653,0.06707974833470388,-0.4629281353601242,-0.7347394967027727,-0.5214000705424191
146,-0.2720661861632788,-0.1555379922661393,0.09990039330135694,0.22134322910774026,-0.16654609939339565,-0.01726186736662957,0.32395762066913025,0.4751503335037795,0.06493333140505744,-0.48016633618337723,-0.7520574406350393,-0.5352411119159602
147,-0.28448273522655143,-0.15103205039256418,0.12275279430972051,0.2189767481691172,-0.18376214548117814,-0.00043197364173271774,0.32710276762044266,0.4870809255346722,0.06855206179999018,-0.4887997831453381,-0.7644217895228511,-0.5442200083722561
148,-0.2866161664985513,-0.13328927152108927,0.13998596448060693,0.21235959211262603,-0.19817841827479332,0.01268924381307342,0.32949289381901736,0.4965660421854816,0.06723895528422139,-0.4943012698813875,-0.7712025386997188,-0.5463017526756966
149,-0.29189761019387445,-0.11776491988666488,0.15723639628777983,0.21022534090619283,-0.20823804085686895,0.02864676685868383,0.33327781205714224,0.5055643716591058,0.06408308993209161,-0.5064333492295605,-0.7795803804533477,-0.5531009436560483
150,-0.29134708471727705,-0.11759504627521357,0.16259429143396548,0.21213151151735557,-0.21191608014337027,0.029372554871279447,0.3375149849517491,0.5150419645717865,0.05758349593861426,-0.517854079188041,-0.8014109152198178,-0.557709189418597
151,-0.29955089764647447,-0.1144855541109633,0.169106243160718,0.21580890084969243,-0.22234849292896186,0.030569031061836435,0.3469974358625898,0.5268017647616712,0.0518024327115479,-0.5305453473862425,-0.8173279776567294,-0.5609374142697081
152,-0.3033524806188192,-0.10333579431293187,0.18313760405103435,0.21787652398859325,-0.22619608591020918,0.03689758605046843,0.3602251948003482,0.5383047562637053,0.047951900333420144,-0.5465286764234505,-0.8292311960556757,-0.5697219069163149
153,-0.30903756989544406,-0.10493362251358664,0.190115628275023,0.21767498348631084,-0.23381646577350598,0.04877252583682894,0.36989792209851846,0.5428689979266164,0.048317363827606145,-0.5668988534656089,-0.8435809213576042,-0.5794128139901006
154,-0.31235389074477016,-0.09821217934252499,0.19554619445338467,0.21345908568099653,-0.2370215048012939,0.057097743001536555,0.37101883646307166,0.535234598131447,0.04875082413765131,-0.5849107377461187,-0.8597094723692561,-0.5870567251516722
155,-0.3062772091036706,-0.0859554048892991,0.2086977652452615,0.20688274309979088,-0.24679338867153336,0.07645625810986156,0.3666379096653426,0.5278589832943124,0.042835943749330155,-0.5988838413513358,-0.8725182635856094,-0.5949101539555666
156,-0.31379996589711867,-0.07036931806676727,0.23213344191000668,0.193745456810343,-0.2574347621386686,0.09453637881739627,0.3629689163101928,0.5198467767236088,0.03452466254307861,-0.6089020266981672,-0.8807807974760543,-0.5909306970993211
157,-0.31839252941649065,-0.04577946650392336,0.24755010665044241,0.18704792120925012,-0.2718196851570991,0.11970659205285555,0.36126463714797497,0.5130549929020178,0.027103486699000506,-0.6176528949902518,-0.8857189039979908,-0.5836861824437518
158,-0.32080722953329255,-0.021176036217570297,0.2589516330543089,0.17801618051729956,-0.27447252542136225,0.13497446864344942,0.3579055923625876,0.5133830369039478,0.0208559868367438,-0.6319090604839049,-0.8902717240000662,-0.5751382906347017
159,-0.31784236500782725,-0.015217841036192878,0.27784805032326376,0.1787608803106269,-0.28005992432074944,0.1437768092064664,0.3492871875510777,0.5232698783900382,0.019687540052205788,-0.6423709324754684,-0.8932600389781913,-0.5737749534213809
160,-0.3162611877017534,-0.0189887026337488,0.289068840085966,0.18097569946188508,-0.2835320027921679,0.15090605977547356,0.33508211736657295,0.5240403174687694,0.016854838772741784,-0.6412449197728647,-0.8922815020774042,-0.5774693365947641
161,-0.31233114176589105,-0.014242073417311832,0.29736206786094455,0.17552215373457092,-0.2804960368396093,0.14878416308301204,0.333177035361243,0.5238274358729591,0.011392842704939912,-0.6405697773940782,-0.8887579722306705,-0.5744223180824626
162,-0.3079703612830387,-0.002272659372468247,0.2978484087133597,0.16732344716119135,-0.28254708359679015,0.15515842894720594,0.32903367559473096,0.5218259328102541,0.006374816824671007,-0.6399399893388695,-0.8860749144975101,-0.5657706710239303
163,-0.3033461411823597,0.011431223044422206,0.3048104551676051,0.15480676184645903,-0.28708371101786184,0.16655177058110815,0.3237462438844212,0.5097166665631588,0.0050723706848860226,-0.6431217380656424,-0.8834917854282542,-0.551348009793911
164,-0.3013279026833251,0.021501054687904947,0.3113937920869423,0.14477773017954645,-0.28572309164418747,0.17760221673571372,0.32094319907468805,0.49380408421372735,0.005004908737493048,-0.6480172431250549,-0.8771156012073464,-0.5366860086896039
165,-0.2911903515915242,0.03065992724861605,0.31486340233050375,0.13543661110263952,-0.28689891575611737,0.18219397164011397,0.32228244530007455,0.476377159341009,-0.002094648200282226,-0.6497276165111988,-0.8658688409267257,-0.5247453296151816
166,-0.2835240966932364,0.04763027238520107,0.3175344212418457,0.12674509049549648,-0.2891427069483117,0.19655081568358995,0.32295640743475185,0.4625186862574347,-0.005459280163477402,-0.6419395005680428,-0.8519815553340264,-0.5101392693979147
167,-0.2723465662201102,0.058461296175269864,0.3293796558849109,0.11574979983832674,-0.29315567408475096,0.20783917315604866,0.316572130130948,0.4544801519869746,-0.002992122740212041,-0.6330015199843274,-0.8363374216388088,-0.48834444397197974
168,-0.27130315095543683,0.07143106547734904,0.3376154976819772,0.10636684398712375,-0.2902950480340275,0.21517412285429474,0.30455133056769523,0.4447919444285141,-0.0016414470373641646,-0.6178756150013036,-0.8170107400653219,-0.46503460660108276
169,-0.276424877924386,0.08263968250569458,0.33906299969005016,0.10126065778723949,-0.2914686699200498,0.2230960360125365,0.29327109864718703,0.43778058030581096,0.00020850881765720544,-0.6010150623329275,-0.7941412985510461,-0.44427548217397955
170,-0.2703064167133041,0.09083078850793089,0.33159984117573105,0.09318674146570365,-0.2837696670091612,0.22109724250080554,0.285324149778052,0.42447398331116165,0.001022022192778256,-0.5855695269233709,-0.7654051632494953,-0.43245027518488116
171,-0.25962194174730757,0.09600020138656534,0.3212746150317075,0.09089842702117717,-0.2786085371809275,0.2154585266140848,0.27796388965957536,0.40951006789891026,-0.00047501971515681585,-0.574226849252327,-0.7322624196091436,-0.41726522523830234
172,-0.24569840384236152,0.09402968404832468,0.313632059949258,0.08831529599366945,-0.27461911114603377,0.2088890788558342,0.266913731581622,0.39789034539532836,0.0052812881323176485,-0.561617324995954,-0.6992978900314004,-0.39628204891733115
173,-0.23728492029945278,0.09433038329456352,0.30862485551958574,0.08262896751040721,-0.2612545369480024,0.21135333176372584,0.2522795290408124,0.38240018326335484,0.011549810295709975,-0.5399126352580159,-0.6675885761985653,-0.37014249472687943
174,-0.22423425211439912,0.10347402420217461,0.31083297168041285,0.06963602413970725,-0.24609095619985497,0.212238786356402,0.2384558488073151,0.36104619684440786,0.017320105910703588,-0.5142145005986488,-0.6311014086913569,-0.35114426455150766
175,-0.2117117261904743,0.1120013291831146,0.3074467551141373,0.05723348122425599,-0.23816097067489023,0.21212027807096343,0.23573552251076924,0.3399682967810672,0.019301477820550285,-0.4865013009365122,-0.5873210244257454,-0.3252160384635658
176,-0.1966941267237587,0.11677915645709509,0.2974683224680217,0.04842316645693758,-0.2288862031987787,0.21456826225071834,0.22205806724748936,0.3204087017474725,0.02190644583250368,-0.45394718436979076,-0.5428903157085265,-0.298070320144728
177,-0.17620458924559107,0.11822279175824085,0.27929769887647715,0.034289231509281384,-0.2135475170666099,0.2105351627982307,0.2043532670303662,0.29831855751926695,0.0247742633219202,-0.4226896957574366,-0.5039009203331541,-0.2747421038670186
178,-0.1619330164234708,0.1291857400527593,0.2717026333074464,0.022792744126610018,-0.19794524578796258,0.20689031512499184,0.18387636085041875,0.27474573255179446,0.027233453135245573,-0.3900657009062113,-0.46820740465229094,-0.25703100624010683
179,-0.1531996934134273,0.13051908697876885,0.25983316968628173,0.019318870506769708,-0.18729874770172336,0.20185795848492058,0.16666844370180067,0.25865716032499503,0.022276101467068467,-0.3612554434566494,-0.43009470318091236,-0.2384308333432019
180,-0.14344442127912238,0.12482355003618903,0.2501152442424467,0.017837220957861284,-0.17889398625801353,0.19761670314597854,0.15765037791233016,0.24232108594261714,0.02091807542678282,-0.3336196350638522,-0.393138045764834,-0.21903266436009483
181,-0.13569462146367373,0.1202946888071425,0.23327589096011445,0.01721926349173839,-0.1680625757277885,0.18997954802784808,0.14882325286157355,0.22532240743843965,0.0213805489320835,-0.3109753129275624,-0.35317706212634803,-0.19951717449648348
182,-0.12736070002146588,0.11725144030849105,0.22619095360687513,0.009296905585546598,-0.1581864875483327,0.1877230296225156,0.13881916585018844,0.20807080311481208,0.02513497545477497,-0.28694183248296756,-0.31424637831708785,-0.18157633166358111
183,-0.11368888841340463,0.11744148963072387,0.21526255764254665,0.0028856602617589946,-0.1527947764055128,0.18015620438592422,0.12992769283051464,0.18815928338215038,0.028553863157719416,-0.2581795411655905,-0.28227707821304004,-0.16400514948839673
184,-0.09566353573864672,0.12051136523797523,0.2016719954567741,-0.005680409537361444,-0.13763215686906558,0.1716644032453004,0.11731221747777884,0.16917832093587362,0.026074910360525706,-0.22705011140767034,-0.2558325268905967,-0.14593651824117268
185,-0.08577992772665213,0.1267689047484912,0.19488269664259106,-0.013251427189480821,-0.11929888174800506,0.169046542348325,0.10206295970110438,0.15355576501545587,0.022591783160395666,-0.1949251039792264,-0.22620651452925125,-0.130013080884549
186,-0.06900228405382565,0.12302509348144457,0.17755576886982372,-0.018554749903554317,-0.10817589085927186,0.16441647513972052,0.08726082432998239,0.13264870706291032,0.023565259156981627,-0.16408580383533597,-0.19156358523676062,-0.10620653221294575
187,-0.062302099997430006,0.12001559442205806,0.16853994881029644,-0.02142975691501807,-0.0941570297762173,0.151525129673668,0.07236172910770318,0.11940201664549677,0.027708533706540618,-0.1354984041765384,-0.15770390705391507,-0.08626800431538773
188,-0.0507431418137802,0.1164156232742232,0.16064383187643969,-0.02351532927310129,-0.09005992844109025,0.143458475156524,0.059496666875634624,0.10725736736825997,0.031500327104948385,-0.11168825888342769,-0.12980281587263823,-0.06533641287363207
189,-0.04438422726739894,0.11461892051896044,0.14991698565213585,-0.02765703428384995,-0.07911757878717814,0.1313536341273381,0.05235544967482228,0.09509935195363745,0.028037285719649814,-0.0950383699878676,-0.10606382790963123,-0.04830653923539003
190,-0.034864239561303335,0.10616639175666828,0.13135898053117556,-0.02905808783461018,-0.06457368233133097,0.12217366210026791,0.04281538298639799,0.08243728622933381,0.02466929817964702,-0.08135585072177616,-0.08347002283575376,-0.037202015480794444
191,-0.02416420227365819,0.10250198848885976,0.1106205121634721,-0.02856175937783407,-0.053524648273652574,0.11535531290634536,0.03106293246607637,0.07267492825818421,0.02059024756125627,-0.0694872452365261,-0.06737058140340797,-0.030595133723202758
192,-0.022861472025486235,0.09190944721856868,0.0945895470404868,-0.027497736497574636,-0.04432313926037079,0.10109034948269477,0.027684033863701163,0.06816225040230448,0.020061070581982667,-0.06002264470795528,-0.05498867646032682,-0.026256807159254325
193,-0.020405428095621295,0.08512809593175016,0.08483152291139459,-0.024741295911160307,-0.04162563031385155,0.09352778618005536,0.02648458430820607,0.05987547004196022,0.02180827328422072,-0.04950445199822859,-0.034016453343256134,-0.01940504183976111
194,-0.01868619780184187,0.07800484254508594,0.0800102455286116,-0.02491548796196031,-0.03435662819808193,0.08638523077002785,0.021170212304588352,0.0456472185700663,0.02003258839430151,-0.04364484506080657,-0.019491108179393354,-0.012902737619095044
195,-0.011760525027926839,0.07088456933121176,0.07229816925546353,-0.024209827447647887,-0.029230972013227295,0.08047141087501297,0.010699653466622858,0.03385852608348652,0.016269755830833166,-0.03827584735404482,-0.009437434162793003,-0.010189952715638089
196,-0.011274209124103506,0.07672909864503256,0.06897172342484345,-0.026952063175968,-0.02335299253579699,0.07900345712062816,0.00379521890250916,0.02505330856172193,0.01484113317595757,-0.029041579562132824,0.002848859109679122,-0.004262377975350083
197,0.0032676644925675857,0.08209889401176565,0.07103264686752268,-0.03221555481635924,-0.01540536964028527,0.08299264084348074,-0.0018535136065698735,0.018190201410512502,0.013818542189865796,-0.017857684211519675,0.01582766299869943,0.003899026358143544
198,0.00302798640527974,0.08240964097164535,0.06908836734866947,-0.03822114414439774,-0.015666924566703433,0.08010793908410474,-0.004887273760931879,0.012154882451730839,0.012424486061817716,-0.00855474341772025,0.019407910971205096,0.012822357013712506
199,0.005725390189144305,0.08448026665943267,0.058797951154432884,-0.039192274441586045,-0.011605500426365514,0.07519274200888354,-0.009097093731464296,0.004791874436576492,0.0077171339141836465,-0.0060554995314995586,0.02519188050364945,0.019210487185301883
200,0.0031839106516852837,0.07570683992970634,0.052076007899812184,-0.034852690794741056,-0.01127717966085645,0.07217184801834467,-0.010972557211587918,0.0006246003790690846,0.0024913122516232525,-0.0021015634385684948,0.024568047955894567,0.010383816259153278
201,-0.00018664584389739731,0.06297780773576477,0.05011498719767952,-0.02611022696673069,-0.0069652989803251145,0.06547595659984624,-0.01309027983165852,-0.0031891906331512065,0.0005230890411124164,-0.002904919673293066,0.01807577557999579,0.00889117919104828
202,0.0003095697978652539,0.05419197191001254,0.04286032303141146,-0.025965890377426255,-0.007479543552707371,0.061295678585949316,-0.016865737724823627,-0.006380841263242905,-0.0010578865645680634,-0.000861083652970808,0.014859887241723949,0.010950612983265303
203,0.0057294934795708245,0.05185867190650692,0.04269340821522887,-0.027751104958103276,-0.005859750799477646,0.057703026567146785,-0.016125792483049576,-0.008194480375119044,0.005107967745843572,0.004313718355673624,0.021321341433843795,0.013212273969105608
204,0.009231847006885148,0.06664628303119957,0.043624219717683835,-0.03265338166797774,-0.0009696250616200667,0.061897767358681355,-0.012534141290801774,-0.010933822018487319,0.004496363211578574,0.004360878991364864,0.02160577135258584,0.008351192433655268
205,0.011000813675955654,0.0669556761514904,0.038901507756351546,-0.0322369794705948,0.0009300841190904591,0.061622011081352374,-0.011659252502659933,-0.0112017222142854,0.0024906490652209894,0.006722863799325567,0.01646424868932418,0.004077552205012486
206,0.013276699922795756,0.06632453662275925,0.03795066393672667,-0.03442131767622983,0.005269525240845551,0.061622299456339166,-0.010001240967129881,-0.0041696720953701485,0.0010350783922473822,0.012669823840349655,0.0205080169034129,0.0091524937479449
207,0.013382600131758328,0.06473454484250227,0.0339850513836114,-0.032021065758856604,0.004047120927145778,0.059090214583889966,-0.008749763789733373,-0.0033317543733646926,0.004896556900145989,0.016408013759995073,0.03375517865130791,0.020180970086387376
208,0.010089227087121426,0.057568529237496835,0.029097168675213808,-0.028967274677843123,0.006021399474158963,0.05399466125017459,-0.013177452757694528,-0.006796060983656808,0.009163954550372385,0.016211285578268092,0.0440978286301853,0.024123422887754212
209,0.010691524308996643,0.060327225558873744,0.024022056544639882,-0.028859351997510496,0.007359265680723022,0.052579373887981076,-0.01402735325325176,-0.004746020967748683,0.010583601615538535,0.01601620493214495,0.04822361877333105,0.027130894763616707
210,0.01631238350173807,0.05599013374411972,0.02694207496031977,-0.02930272106273991,0.006921739233132842,0.04933008837524347,-0.015105228077098309,-0.00500629055329805,0.007459535454688707,0.014935565070346532,0.04846423382261618,0.021890143843478344
211,0.022668359715124216,0.055468761083240115,0.02852394689170802,-0.030209073392937096,0.011411766988979088,0.04912965198704966,-0.010842588821681043,-0.003561269438426287,0.008399695871291118,0.014871378176635704,0.03901436870229584,0.02061995379032651
212,0.011508708746243648,0.05114329458003425,0.029262857019160378,-0.021046546559346773,0.00980541217102209,0.05246910120931529,-0.006529277206172134,-0.004150360985419543,0.005892861114022339,0.017517483303121778,0.04467017924066301,0.018822495520566626
213,0.009517567563542384,0.04939864303122397,0.029793203983382158,-0.020653498830237912,0.0019272133223339934,0.05061776235701883,-0.009522627413551955,-0.007803698842400869,0.005217703367262613,0.017656750648704644,0.050003788185492545,0.016283858303066213
214,0.008315138580241355,0.05159769584357135,0.029710794137343007,-0.02875272242782669,0.004740776188747708,0.04923611478711435,-0.004831576335492523,-0.010241998803122765,0.008392416975234497,0.02106266405487906,0.04186830645628052,0.010390528790707355
215,0.01048377775566648,0.05654548901330779,0.02570239142721996,-0.025887418137317538,0.01177856258678114,0.053110394029827326,-0.0037729907936885523,-0.005298390574959608,0.011652335934462677,0.025495387660940373,0.034280268884572494,0.005515727444614581
216,0.011929749640603225,0.06467460143788568,0.025114422421673457,-0.025192179284048002,0.008745090693313393,0.0558118181249941,-0.006175504290818757,-0.0040484462433728885,0.012806581772026683,0.02335819792932111,0.03393821457907824,0.006806516162329659
217,0.01563406608663591,0.06310722889308125,0.033155412454731546,-0.025318374359440683,0.006532983690274009,0.04823607292653243,-0.01845532795307408,-0.0033680257309772824,0.010900815671454657,0.017838222691720973,0.0386542780028121,0.012201163913029084
218,0.01781576040628868,0.05808995053691477,0.03085413632075956,-0.02758839588375359,0.00768317793663218,0.05073007703261159,-0.019021827631967844,-0.0017386899278118637,0.005551543391672371,0.016847481698505112,0.045062690973045834,0.012624613777935154
219,0.015246573658802269,0.06008769676004781,0.03467255372319324,-0.029119884785405937,0.011164300660350637,0.049047494693075115,-0.019934763091459234,-0.0003952256333384918,0.008445761859876836,0.022444410296873905,0.043992912629827144,0.01154953582924048
220,0.011915847944193978,0.05502669283818365,0.03497237951392949,-0.02606281829198575,0.005087202250557957,0.05027565841200554,-0.022165730995600354,-0.0013724695765835182,0.012991224785919572,0.025957485785845853,0.049078017406234326,0.01771580341142307
221,0.002444739950824318,0.04000245346998791,0.033348901947769,-0.017623413614804122,-0.0007909803293409661,0.04510698044324307,-0.019335812529258093,-0.0003515849788737896,0.013195511865175813,0.023947801736133357,0.050719769047157574,0.0170697175514492
222,-0.0023148661425578965,0.043307366865412825,0.027075469290364175,-0.011966668145684351,-0.0023351988173724893,0.046992989658719495,-0.014922593748561818,0.0026912462074801663,0.015407305162534773,0.02084431961958519,0.04852942292281543,0.014570055973608026
223,-0.0010812448834274149,0.04340413726018504,0.021688100148470817,-0.017541487492910842,0.002221866946619801,0.039078491598851475,-0.012193724000863047,0.005016411077920391,0.015377435766026022,0.020120902642731954,0.04424381687566584,0.011482287895687483
