idx,I,II,III,aVR,aVL,aVF,V1,V2,V3,V4,V5,V6
0,0.03317818925601758,0.005435401369351077,-0.026252851073031963,-0.008714117029416879,0.020743210068754077,-0.0054101842832595115,-0.0996650487738853,-0.03476145861576159,0.07803579099415231,-0.01289664636310136,-0.04482359246200189,0.012485037720031799
1,0.024551480333888702,0.005615338218014604,-0.016038635291430813,-0.006913475610409059,0.02170510576993937,-0.0007967318926754285,-0.09142786960424418,-0.03333954920386993,0.08000237870399793,-0.014194082127805936,-0.04580384745727473,0.01430209099121403
2,0.018331571616614264,0.00036108072434376526,-0.01268767187255769,-0.0033107222854202867,0.02134932704642113,-0.0013860131577617396,-0.07985318692101379,-0.038023657502225805,0.07555143292734218,-0.018533110075500993,-0.05060888296897377,0.015336453497550374
3,0.013886590008017539,-0.0048660196729004845,-0.014538282050145929,0.0013134576114173513,0.017657333586471223,-0.0028368584530182595,-0.06853056825736942,-0.045767341835087766,0.07196846916131458,-0.021042115611800437,-0.05595333907898721,0.012652636221170712
4,0.011799955875014348,-0.009026056604133505,-0.012921771100158061,0.0045343345248642225,0.010139230594056317,-0.0008576736198874536,-0.06756656612723244,-0.052822422786911474,0.07170488956814225,-0.017841395373856157,-0.05768611123581906,0.00880737853756831
5,0.010394205334678816,-0.007821068272608644,-0.007703528132146229,0.004138224669438181,0.004258778990435761,0.0024587786841463073,-0.06509618737377273,-0.055551537589315844,0.07213831696489577,-0.012084523733114562,-0.05651313486040713,0.008686457478154934
6,0.010038440908053382,-0.003924528858017272,-0.004218700370814548,0.0016899815131954724,0.004755367872051487,0.004132639431895922,-0.06361217409443128,-0.053289894024637144,0.07203579529265876,-0.010829186063781533,-0.056204773569747526,0.011472465853107915
7,0.012605885097310235,-0.005056807049866753,-0.003997070210553552,0.007871570534117509,0.0073161092111261854,0.0034072357247044646,-0.06369828974071352,-0.05054339102515727,0.07233166294497148,-0.01601250485998499,-0.05923095956421193,0.012746523357281579
8,0.0066412129153175375,-0.007621430994417797,-0.0060580964687806,0.010687347604448769,0.011096917303223815,0.00015391886599208648,-0.06407592306187453,-0.0500617809510879,0.07218704050569079,-0.02173355007703149,-0.0638753463562074,0.012736307030914319
9,0.005449395908436783,-0.013256991079960534,-0.009887067619252503,0.011915258020778793,0.01357387372449408,-0.003859738628989008,-0.06415547135140846,-0.04920609090065599,0.06931890819841001,-0.023432973566756922,-0.0667231926881509,0.015405752851585934
10,0.011460833330439553,-0.01216412480551022,-0.013489224695504766,0.009036930675270477,0.01368110434665736,-0.004896318539751698,-0.06417095083282374,-0.04691478083329674,0.06430349733720064,-0.02266897144857232,-0.0681120826230943,0.020398689874542048
11,0.010532353331105738,-0.006314356419003714,-0.012440631998006116,0.004346331322580825,0.01447692395557126,-0.004524385727694855,-0.06419889990620009,-0.04572078911879206,0.06038533614815549,-0.01999024090398311,-0.07013133248666484,0.023191279655143213
12,0.008440468933246455,-0.003188375323034752,-0.012420128647927953,0.0010458108807368457,0.015958325338623916,-0.0045005007732749555,-0.06427973820201825,-0.04574684065968328,0.06024436344199667,-0.014590978743853254,-0.07181255909550349,0.023024393785775546
13,0.010195418089928979,-0.0018076202663993915,-0.011359523357063559,0.0006282449591828373,0.015425566177895297,-0.0029176421858679996,-0.06452994224897912,-0.04433729660170806,0.06495632103238218,-0.014083866162726437,-0.07103677731752013,0.02377939735604035
14,0.0018257383030269927,-0.003351516100785275,-0.007713645737839135,0.007158500675186433,0.009013941188898275,-0.0015915137531902074,-0.06461684136965526,-0.041965140056052744,0.07220385367457989,-0.01775653328562584,-0.0671218396639961,0.02597471725843931
15,0.0010290657353899564,-0.0060449501068813305,-0.0032269480768955874,0.004731421753533374,-0.0024965833712207244,-0.00103322917198247,-0.06383989983275676,-0.042028242077716604,0.07690966187460659,-0.014044605279106524,-0.060318147721184545,0.02592575770271553
16,0.006911597599342019,-0.007512549894369995,0.0005587680831184594,0.0015520473183780054,-0.0010648190203020342,-0.0004165479984467313,-0.0613999023055723,-0.0443633553721354,0.07645682646210111,-0.00868727291124674,-0.05258766152252975,0.02577195455931879
17,0.010227914672510996,-0.003696712685119209,0.0025640833180540015,0.000681684949455405,0.002992226003352024,0.0007368797915252578,-0.056904877548127814,-0.045514199889681514,0.07258328985234166,-0.0073524624761091215,-0.04742054193732485,0.025787321272281435
18,0.009070806886587634,0.007670895375577386,0.0020147311969483384,-0.005465702929171017,0.0042467062182109695,0.0038230877984129392,-0.053093048080796144,-0.04577205798342179,0.06928098998459996,-0.007401875878835111,-0.04635777905910321,0.02623986505622484
19,0.008244108773082438,-0.0065895065183208396,-0.002403400581527753,0.006387232451338654,0.007398736129839153,0.0017421753995650428,-0.054687344822636194,-0.048035848632599576,0.06893568561134357,-0.0077330427234519675,-0.047554824023108025,0.025851174108097754
20,0.00273388405550834,-0.004183512305660497,-5.8975483094768355e-05,0.010654791744890209,0.002700132315629266,-0.0002014080231327979,-0.04946642209026632,-0.04621582670301495,0.0693772220327071,-0.007328735256838109,-0.05181447384716231,0.02095530668704755
21,-0.006827184719653642,-0.00025605950152915447,0.006934734231698285,0.005492913949644462,-0.0056402571037209755,0.0037103272391067407,-0.04114642538302681,-0.02011081141306759,0.06991792974458454,-0.009674118739429222,-0.05734188202615868,0.006712809002081946
22,-0.027509533339028766,-0.00034743003188493493,0.02270961302373592,0.02041427674880284,-0.021595984305630735,0.012975544692106274,-0.019522143748431885,0.04890026805688306,0.0795841989601262,-0.015608747094265775,-0.07815636574689792,-0.01949737276341923
23,-0.04179115949177523,0.0009909369527005205,0.04057435854624291,0.031042847764459508,-0.04003998141602225,0.014693646305508474,0.012434957592150964,0.13577110679987794,0.11177154147411833,-0.020598494404855387,-0.11039690598006234,-0.05270824935903311
24,-0.05574859032085199,-0.0013749510773762158,0.053416064273752326,0.03909508451666924,-0.047741054672022235,0.021238896044630477,0.045029310190396514,0.2379956896902887,0.19406717118279926,-0.012207609511517246,-0.13740857058722128,-0.0795105661623787
25,-0.04353197318131825,0.001736168924398325,0.061741542536744944,0.034435173235033215,-0.04222104987885903,0.029189430645827324,0.07212075002977025,0.36746080486653104,0.32947799081734314,0.024776463510765265,-0.1401851355473504,-0.08705625592718684
26,-0.033719125689029655,0.03136623446869254,0.06398004625198286,0.003329014399187688,-0.030683410183406437,0.049409545360432496,0.09352146287223487,0.5154008511786404,0.48096170474687433,0.100392449312879,-0.110401786932448,-0.07181762866462478
27,0.005771747887413078,0.053716578943208415,0.06080045572566266,-0.031119232487361474,-0.024707041090663413,0.061544215352683444,0.10616023306060407,0.6682544500912811,0.6250632845463556,0.22300886616353208,-0.050063560716428715,-0.038622412298243064
28,0.032605217752337566,0.08178063074341027,0.05168295956231744,-0.056147819281428396,-0.0075485485415913225,0.06840207087117964,0.09684676968317141,0.7766525432332534,0.7381179043481235,0.3593706975492775,0.0369190990225543,0.010771559895288961
29,0.07807728325569943,0.12688876516141126,0.046945540639183214,-0.09770227101332088,0.021516603767754966,0.08687207052524815,0.05268772963528812,0.7610206800657354,0.8352426976289868,0.5179730179074589,0.17002364527821065,0.08513236504798441
30,0.1682390230270524,0.20718978356501813,0.03736763960645445,-0.18480893446967625,0.06655784979781952,0.12216545354752023,0.006954576370562154,0.7222394447604141,0.9515977316890646,0.7302035915401269,0.3542093984334152,0.18998098552790843
31,0.2817192264876997,0.29185895704691056,0.01099627892065631,-0.2853496426775613,0.1364374813242989,0.15232635366718542,-0.08426405448809024,0.6083329538641926,1.0806883366488393,1.0040269758309415,0.6551305489088559,0.3446018163836406
32,0.4364914685319294,0.4084850342606299,-0.03269171390204216,-0.42386776135624904,0.22810844700849048,0.1874664421236945,-0.24973280535840175,0.41226802986675,1.1992881092088328,1.3227112872299422,0.9845015892782807,0.5536124055034476
33,0.5915392732384346,0.4889170788015029,-0.10415201110182662,-0.5335039882080999,0.352308785544438,0.19936865550830357,-0.407456503753902,0.22329099477783368,1.3045375224819629,1.679381068505506,1.3496923910499021,0.8012185643679931
34,0.7754389756072282,0.5724005493267118,-0.19118938746083516,-0.6688503035995712,0.48621871587937304,0.2020533936791741,-0.5550774323314962,0.11909585525515336,1.4027425244644691,2.057176112599024,1.7392101450396737,1.0658234283725057
35,0.9235876062673143,0.6745032813958612,-0.24518405761890724,-0.7834141914715713,0.590037648374761,0.22125560358479093,-0.7084741524389717,-0.022320884871207602,1.5038314372417492,2.457641226925241,2.101478312354023,1.330931036832647
36,1.0320878348496163,0.7594503147250184,-0.25471973984345875,-0.8860530735105021,0.6530498930784883,0.2621772735528608,-0.8280518130257204,-0.23887607911663852,1.5198291745917976,2.7064397142258163,2.3392574511565463,1.5755884333533625
37,1.0706243014010255,0.8356822535958037,-0.20503735149541127,-0.9549233592601907,0.6433766629012035,0.31825136259402337,-0.9347256175935673,-0.5241842714278607,1.3275299058964853,2.679111610562291,2.462828144264746,1.7521162294434232
38,1.0497511436435984,0.9034889052165989,-0.11301978929408954,-0.9874519297748094,0.575448682352246,0.39486044567772843,-1.0210334923191338,-0.897025300278916,0.9520170061206503,2.420342077844023,2.3710033540012403,1.7945139389346416
39,0.9244122591494274,0.9471040312259216,0.03308723567632735,-0.9491934365007997,0.4382499804248406,0.4837603181371913,-1.0464450450774063,-1.368082400699497,0.4981785481299957,1.9600471523023246,2.1142691416068686,1.74271871207978
40,0.7698918199996483,0.9457782965766477,0.15216536122112084,-0.8570505888034621,0.2945391879145905,0.5472257513910941,-1.036813116303443,-1.8087057269109283,-0.03077540830820074,1.3808176437051516,1.7852399416070932,1.627192292402111
41,0.6519581800073734,0.8760277712191887,0.1842241322312819,-0.7416602427072307,0.25226347704848945,0.5302460524877155,-1.0208637399078484,-2.1326548410033896,-0.5920442061912119,0.7166684229121332,1.361772981606871,1.469346465168357
42,0.5890034006153263,0.7244997764510822,0.10106111223853889,-0.6261133936748515,0.250257573852358,0.3992750640904853,-1.0060992097447756,-2.3110145305820162,-1.1314633470461106,0.07037731367221199,0.9139059748693564,1.2737184723756596
43,0.5134329770908815,0.5120170509964634,-0.03513068079938405,-0.5008266442003858,0.2773704163052094,0.22824466164104532,-0.9791340524041177,-2.4030578110289214,-1.599110837593366,-0.5047315779540866,0.4713468954666542,1.0616507510713415
44,0.4634951049196388,0.3261778441411638,-0.13527844170718933,-0.3956021263517888,0.2953594228448001,0.097158355374654,-0.935664509883662,-2.3804848578380082,-1.87417676494728,-0.9967927992853289,0.06647826072607704,0.880845615324603
45,0.40681962171292724,0.26383552119919373,-0.16024958964363603,-0.3334637612364668,0.2797543110097189,0.05204553906515384,-0.8703848297015357,-2.2500796073924016,-1.8560838149851488,-1.080288778678792,-0.05786100751319476,0.7675539195336227
46,0.332421198167796,0.1964380506838258,-0.15378583928516937,-0.2623592007319336,0.24418131973678192,0.013810359697844036,-0.8051915517886616,-2.019640284217627,-1.5840865574053058,-0.9316112100806264,-0.056839408645317266,0.6823832000273267
47,0.25638827397375075,0.13511347303452093,-0.13525186208335505,-0.19302398235130963,0.1896906345409204,0.00321656585169635,-0.7222778127893794,-1.7722875668478235,-1.391963651071618,-0.8644756025537392,-0.13555306369054296,0.5861156682816376
48,0.21371036622480255,0.10103126761132691,-0.12025969636171213,-0.15589400890361188,0.16476665306992186,-0.013335147998063804,-0.6247942807889332,-1.5268965397638474,-1.206452842467005,-0.8078849382317319,-0.18553019385588987,0.46978915383390696
49,0.16698514871809317,0.07745040999343354,-0.11770346929882072,-0.10575941613671973,0.14529711439147838,-0.024876906140327275,-0.5236273640904054,-1.2853079090133215,-1.0204958307375114,-0.722668286205691,-0.21900174734464764,0.3602521821786297
50,0.13563303544423247,0.04696061884204866,-0.09558633741190176,-0.08462967283952517,0.117124499879047,-0.025556560606518654,-0.4227176871133707,-1.049169690775579,-0.8262659436589952,-0.608309625077095,-0.2462279835810488,0.25990888859596023
51,0.09340320945905897,0.03561688036812479,-0.054842790187672456,-0.06262616917437444,0.07500025274905607,-0.007924101945683493,-0.3242731962436122,-0.8143247959229534,-0.6561857745554831,-0.494124989863961,-0.23394739064901104,0.1686332639781961
52,0.06363001627403868,0.03328673498763376,-0.03351386367004008,-0.04422249372545387,0.05041193259592673,0.0002843305457457049,-0.2382645753566986,-0.595451871994621,-0.4892377295363677,-0.40430750012040995,-0.22076175219866137,0.10208662235820869
53,0.051158627232133894,0.013499448511464562,-0.03547150609174869,-0.029816565445628777,0.046129453415062235,-0.007887678883666413,-0.19819968627810233,-0.4340569464742582,-0.3881842795123521,-0.3402414753705518,-0.21444977539665624,0.07550284768061907
54,0.03087392193130062,-0.0030642143399664257,-0.030333953872167266,-0.015055407826689834,0.033861339878420056,-0.01239220250413043,-0.15567915433909793,-0.3174907999290433,-0.31653019910430347,-0.2854070751454447,-0.2122796442299861,0.05119952288363728
55,0.0054047865409564445,-0.016485159681278456,-0.01891092172714174,0.006435321870376709,0.0149040161343535,-0.01831103957289438,-0.11994305388959142,-0.24072719958820685,-0.2508544090670539,-0.25009743011246427,-0.21435571751299848,0.022258096580346436
56,-0.008310708665896012,-0.02742386927928607,-0.0055227319703886925,0.02586469447145104,0.0009370020214718323,-0.015138440993315856,-0.08921651466906445,-0.18594782703469895,-0.19223779966912738,-0.22281247690625455,-0.2163364016201398,-0.0020447008610331614
57,-0.027590846660437277,-0.03605595246709782,0.002326924726817463,0.035049422791901055,-0.011768393787630253,-0.014640321120557812,-0.06519627370357253,-0.13453907161825718,-0.14511210380050973,-0.1907308559425227,-0.21221674186165218,-0.01716621218554895
58,-0.03675745896152773,-0.040452887405647106,0.007326182788428368,0.046824221596886095,-0.01385026360762179,-0.014330277650667939,-0.045461236611030756,-0.08173475596714047,-0.10971147426390232,-0.1588427020560505,-0.20330825990179416,-0.02847729472203052
59,-0.04431547640191282,-0.0331246069029395,0.01216149813247247,0.04907598879660394,-0.018732959050408532,-0.003307129479619926,-0.0325627112707432,-0.047777745553516715,-0.07151120301173558,-0.12839551519969722,-0.19333458864549574,-0.0395151452058741
60,-0.025187591981534467,-0.0293769353974499,0.004690576011071089,0.030398328561109612,-0.01713011282026839,-0.0039400894753515645,-0.024306924475666944,-0.014993774914650784,-0.036686948270927784,-0.1034244620221266,-0.18215137822685956,-0.047162475858030295
61,-0.025728703924032585,-0.01892536808297105,-0.008048562613352631,0.022654644539212253,-0.002848802722230091,-0.008412899640536674,-0.017201228655724602,0.016889916924819587,-0.018491147828535122,-0.09206071222112039,-0.17049018252097284,-0.04934629529444072
62,-0.029023081367990963,-0.025839930316807383,-0.010307218601979837,0.021856693114559664,-0.00011501122277635979,-0.012047167534175028,-0.010756217091749665,0.03927006683170663,-0.01944173520702474,-0.09545388647660191,-0.16208855633260766,-0.04893805416055143
63,-0.02606141650022173,-0.024630297181739744,0.0008124362299649808,0.021877111307981922,-0.00915774456201829,-0.009021877270999547,-0.008257358431013547,0.047640362513753504,-0.022491595961584267,-0.09447372273353644,-0.16289744998768427,-0.04943545611588501
64,-0.029689365089110416,-0.01853148274366708,0.017286269346706375,0.028371089857858453,-0.02514663951199144,-0.0019715338128628267,-0.01133827196574446,0.04753491293808068,-0.02758107542369214,-0.08974703353746763,-0.1686564621771989,-0.05186488216135103
65,-0.042680426709346804,-0.016379563230215784,0.027589004238141042,0.027796391878521183,-0.034386743231657385,-0.0008668773634934838,-0.01667082755305123,0.04643723661797451,-0.03398648769150058,-0.08130184539223889,-0.1715177897525632,-0.05633680432314424
66,-0.04600270951953043,-0.016816826344283685,0.02977635555469364,0.033023676948476854,-0.0368465225384579,9.521348785506908e-05,-0.01957092805332244,0.04614022992731695,-0.035612997633578426,-0.07330020313258842,-0.1704032716862057,-0.062080505600250996
67,-0.050786733845595323,-0.020102541609927027,0.025557581823974964,0.03615310231116936,-0.03399451032182562,0.0008384994303709224,-0.019462766741828445,0.046543195938677194,-0.032685290303496005,-0.07039545307341874,-0.1706311418395877,-0.06747958185427791
68,-0.050136912531258855,-0.023697696510221855,0.01740303932133839,0.03357984093836987,-0.03393698334955575,-0.002194976535126597,-0.0175616764311152,0.051078216295558254,-0.023977588899741158,-0.07129300921679518,-0.18011645848293964,-0.07213758690194348
69,-0.04207807729334188,-0.02650960821473393,0.01257042447780664,0.031856133002055795,-0.027247778805683444,-0.00490320367492051,-0.009792787768894022,0.06414764191877446,-0.010080059462286996,-0.07242561664108052,-0.2009938087110866,-0.07508467319838756
70,-0.035543831700269334,-0.031146872734188147,0.014619529669750688,0.03131755123545696,-0.02390062262698829,-0.004336838990888318,-0.0007151438350214492,0.0757850013525671,0.00445639801513692,-0.07085598126706075,-0.22389653605682916,-0.07421417047322923
71,-0.03554868764150151,-0.03152710283086878,0.018812008997576724,0.033753907754142304,-0.02281058740847361,-0.002236532962880306,0.004340836669706541,0.08648214222763588,0.013428528631816226,-0.0653934915240956,-0.23622207671968376,-0.07046494821365631
72,-0.03344592881648015,-0.029159949279671193,0.019320700611877878,0.03715943255682408,-0.02261908559560824,-0.0007754084839325694,0.005100550943442493,0.09513591725397129,0.016469233328634293,-0.05907394293829305,-0.23336072392806362,-0.06678013739029474
73,-0.033140639219380943,-0.027982917510058908,0.014925706241909696,0.04030521016124411,-0.02262175395988386,-0.0014248572720336264,0.005614452813454171,0.10118035271048637,0.016398501692111954,-0.056976354288885735,-0.23028147336274635,-0.06478859243826769
74,-0.03647340570941129,-0.0280554518177044,0.01016390181461365,0.04198193354560928,-0.02213759570399073,-0.007499353205170124,0.008095132655487579,0.10526834914140032,0.012376908854723076,-0.05854075134843547,-0.22884350045741503,-0.0652610613200669
75,-0.037457278569066506,-0.03262650486089175,0.011204276085184773,0.03939362076236404,-0.025903186208517788,-0.009328543390523927,0.011054906430003633,0.10534004166750463,0.004368090529843771,-0.05823042708013903,-0.23017058592778022,-0.06711074561289827
76,-0.0372728316935605,-0.027578864436611825,0.014783499720373678,0.03334168514878458,-0.02959249228665499,-0.004955060063253518,0.012070861785763873,0.10071875371806072,-0.0024842035206092405,-0.057920033863885605,-0.2274144625553277,-0.06867419044048387
77,-0.03252215846375178,-0.024796411542338248,0.011258356227419932,0.03027319401961496,-0.02283675449644265,-0.0067660805281701125,0.010770275197237382,0.09426979574197719,-0.00300498808215377,-0.060832864928767987,-0.2273881789459472,-0.07165022591178044
78,-0.031403886434498554,-0.03235193876564564,0.01013903948025782,0.03361098407417294,-0.01758406833129328,-0.014116439442468778,0.008950757642420246,0.08876670911504826,-0.0028817921834222646,-0.06611005814126991,-0.22976921265845007,-0.07706002361663218
79,-0.034725680108127106,-0.042862319642314864,0.008418574980721743,0.036630334165503084,-0.017000918711146312,-0.020229432295914784,0.008421423356702082,0.08709859889955422,-0.00269148909621917,-0.0668593357726684,-0.23145160593557496,-0.08002993073372164
80,-0.036381444276676216,-0.03919082641434524,0.006629409963175018,0.03379834105572037,-0.01798410519020121,-0.022013980743604507,0.010051269304700149,0.09438361879523156,0.0003947521919638597,-0.06566429393528603,-0.23062495958786083,-0.07599492909572719
81,-0.03530600049889807,-0.035182770667286256,0.000708742598995794,0.03242841811627155,-0.016738833629402615,-0.01913650718580555,0.01359457201266926,0.10358685040392493,0.005597020843226684,-0.06209330415822508,-0.2264509397887705,-0.06814340330255564
82,-0.028894393981014364,-0.03358014704135831,-0.0009983109044025638,0.03071743897709165,-0.016091035518541054,-0.01659134770827112,0.017592094580736933,0.10932251452395085,0.011664711696790987,-0.05706872806299825,-0.2190990926454415,-0.0627026882803875
83,-0.029041572953201207,-0.023529379437517692,0.007652957251425604,0.02561141331516477,-0.012596514964255545,-0.0023682376999646926,0.0205966858975611,0.10868614477622561,0.016851653932117273,-0.05187021050678491,-0.21233080596914514,-0.06043264960719692
84,-0.031012505221892125,-0.01580737310879085,0.007382723584776107,0.017851458949976418,-0.017206652428768676,0.0015432051170337913,0.021563741554981933,0.1050664517293595,0.017718965878420208,-0.05206090766819616,-0.20980546548638362,-0.05815683835963667
85,-0.03682706118399721,-0.011102973902748461,0.010913085405985415,0.021626037807914757,-0.021445882257264258,-0.0012067126654772484,0.019448265473803066,0.10047778950730835,0.014302637621111579,-0.05230986133080332,-0.2133631607006313,-0.05576453576909601
86,-0.04220031971597978,-0.010876715280320803,0.01928775613377434,0.03040007206372765,-0.026645395944876915,-0.0048586724688734345,0.014972441009800934,0.10066894572557719,0.011109109531727564,-0.05285095158389199,-0.21868358665039897,-0.05587701490630294
87,-0.04733963274638054,-0.0167704482081657,0.023990590202594864,0.03349711491179365,-0.03394898061176641,-0.00017592394507260148,0.015605441857365378,0.10032967768646028,0.010537432516844428,-0.051693567091709185,-0.21943499753474188,-0.058307079103144616
88,-0.043670722703151595,-0.019284214476822124,0.02075370658953188,0.03172843581262655,-0.034643783449740194,0.0023192896727177517,0.013675842155478117,0.10074631732767635,0.012189582195780299,-0.04635708613322293,-0.21715759075236396,-0.060364107706210146
89,-0.039720013602445155,-0.016123619272277685,0.018085739968477798,0.02948743183750615,-0.028992451961117938,-0.001305165297582761,0.008430765747429299,0.11094436476960404,0.017150260930397128,-0.038633139104330576,-0.2175624392183122,-0.06077426579504837
90,-0.033125278329526164,-0.021330721531107925,0.016001497764603266,0.02862895195857658,-0.026090884894382813,-0.0048577152416161215,0.011431178233188913,0.11804065928168107,0.026371745378993765,-0.03329115348781684,-0.21631614288525544,-0.059024170722879854
91,-0.03380193843276222,-0.025734615960891216,0.01210957436629524,0.030751058349091136,-0.023435883161727192,-0.007427111334806627,0.019864726041494744,0.11986268819039453,0.03720390912871971,-0.031855567865673444,-0.21285786144784788,-0.05482218184550232
92,-0.027103027603068083,-0.024594718983230318,0.007305425021114956,0.02778253881032027,-0.0171656834801441,-0.00960318884859225,0.025787618799340196,0.11983427800271063,0.045030797894702865,-0.032464548257286695,-0.20880428865522166,-0.05104102641146224
93,-0.02277891359059473,-0.024254126814721486,0.007690651739166892,0.02471588468279664,-0.014522729571119756,-0.009387707541141606,0.029398640420777576,0.12040736537967653,0.047616535411120806,-0.0341254952673497,-0.20737214256980488,-0.05144565266244089
94,-0.02543670954341118,-0.025536306641292195,0.009793356317642866,0.027100417108921575,-0.014945418221395739,-0.008391440861055005,0.03153204032890355,0.12355974135339282,0.04634980883062749,-0.036417447020678416,-0.20932625466112945,-0.054214236521462345
95,-0.03203345057964937,-0.026713687801142014,0.016986427277297815,0.028333933572047443,-0.018893586749822854,-0.0049256310205243944,0.03246384150710482,0.1258840347560893,0.04298615952811506,-0.0380676299893346,-0.21250067286154353,-0.05426854142687988
96,-0.03291974250045513,-0.02287175272902736,0.017131811356233203,0.02950965663131122,-0.024144800926865176,0.0009574074617788482,0.032497635503022475,0.1260363357321154,0.03884817184369042,-0.03833502212085734,-0.21374894971264585,-0.05194042569305064
97,-0.037271265077587025,-0.02150319850663985,0.016634635069129416,0.031001140808683395,-0.02640675715173872,0.006008177952242295,0.03223550486576179,0.1272451867824611,0.03717546557773768,-0.037020913521633565,-0.2123704953282886,-0.05164858263803221
98,-0.03863383529366448,-0.020203925144483374,0.01686149203114875,0.03225028254375109,-0.02678028141185989,0.006779574396848422,0.03194048705602089,0.13034274635770077,0.03953175671778886,-0.03344840539173797,-0.2113019967091223,-0.05356234157229847
99,-0.04004328055481129,-0.01659921020506616,0.014888349329121099,0.03295535660106662,-0.02628475688394448,0.0032761826626054626,0.03197903757858601,0.13468503336966736,0.04226535181814622,-0.02757521276932421,-0.20911629420138492,-0.055370651707595725
100,-0.041236428332339196,-0.013992286651024262,0.01242481089696864,0.02922826650825157,-0.025871671625732416,0.0009081898276461497,0.03296441244606476,0.136026774558583,0.0429596569290286,-0.02307476343115051,-0.2052785614909255,-0.05834015148295549
101,-0.04138708261892835,-0.015369225941830468,0.010416678261158972,0.027710952059784688,-0.02535638893295232,-0.00024275146546609214,0.035042157689956825,0.1337330543044465,0.043949404904233075,-0.023007063460924494,-0.2034249122890351,-0.06320582639617793
102,-0.039755133402520425,-0.01776637585989592,0.007877314167646528,0.026388229458722934,-0.023568816672006755,-0.004588105298402985,0.038210965891657865,0.13368735579946703,0.046155788833420044,-0.025891235259081942,-0.20440209028826284,-0.06616209644764108
103,-0.033061640062298475,-0.01799747530140928,0.003279701430168234,0.02247404942987167,-0.017864052991121662,-0.006118217668874264,0.03547671177375151,0.13806744675684945,0.047833968301009125,-0.02848260573536473,-0.20604014836872403,-0.06480962540721794
104,-0.026823287658831838,-0.015578744466615536,0.004855106895128516,0.018698808561207224,-0.010786079761097767,-0.004111029641504942,0.03547945291574813,0.1416484741107857,0.04910856768972489,-0.025761804736526304,-0.2063362855298985,-0.061951087014659414
105,-0.027397389435806607,-0.013042437018227472,0.0074873236265417566,0.01796672359897719,-0.01239419982854272,-0.0025449876611361687,0.03938086832411162,0.1414349597467588,0.05140429376825795,-0.023187600337378565,-0.20600230285517282,-0.060592645406326084
106,-0.03479578704672589,-0.013037501800847347,0.011188265565711732,0.019812259351181964,-0.017218419045146004,8.211396644516172e-05,0.03951819694324527,0.1415388068354758,0.05454661462405097,-0.02541124598934829,-0.2059603614160169,-0.06018610300874733
107,-0.03421357296913796,-0.012320141880307889,0.015612455652424665,0.021306994473998864,-0.022500918079940244,0.002652888970071307,0.03935504831258597,0.1434206449147238,0.056916316954290044,-0.028476373877628892,-0.20602417142733176,-0.06023431767830981
108,-0.03447585243690825,-0.009875302901081191,0.019506395395698983,0.02327311795670365,-0.024061700834273884,0.0046750329040391655,0.039115717306978846,0.1467805994996746,0.057595975329665296,-0.027630638736725548,-0.20592016216256012,-0.06307213646799506
109,-0.03694970144578289,-0.006939655489213166,0.02667679797290624,0.024672054318266814,-0.030138970947960878,0.0062471431090808036,0.03875366098484379,0.15325978077599894,0.05885600756265279,-0.024613427138241127,-0.20598056204126083,-0.06940001155712282
110,-0.03626541101291963,-0.010001564776408164,0.024209014249322883,0.02450899649354312,-0.029056154573099527,0.004437447477378488,0.038578473877203,0.1574225941623844,0.06413551553627665,-0.023061912108943393,-0.20657897746068002,-0.07537702829638451
111,-0.037263076872672975,-0.014819950223636393,0.017183261580054513,0.022846231425475663,-0.025674241689801022,0.0019702680488752657,0.04093894358023529,0.15871935522031666,0.07202874455105146,-0.02325585882610271,-0.20630779868139856,-0.0768883756454037
112,-0.037428015512261374,-0.014821354342742232,0.012620425804636218,0.022512511147850252,-0.023585260883208482,0.0020663557671493846,0.0443855827965643,0.16044264948858727,0.05867937946919572,-0.023584371511907974,-0.20333911299894722,-0.0735483033961709
113,-0.03686469156092658,-0.012628341396496441,0.012558798573013811,0.02527760526642172,-0.023530687008948475,0.002208927877921863,0.04724837736165321,0.16704578662666092,0.036802018027023195,-0.02329635370630207,-0.19981059935772014,-0.0684164233256056
114,-0.030695884073948625,-0.010318871167125473,0.014872675015318788,0.029026099590865898,-0.024745434688681053,0.0006611085757015356,0.050255405014070754,0.178534894645147,0.03664698007179538,-0.019340973480765612,-0.19963943541614718,-0.06507637339220242
115,-0.02592631015227627,-0.008184778926435841,0.01728518305080147,0.029737671948578098,-0.026006444184949816,0.00021655147818913645,0.048293225791297224,0.18789318170395866,0.03716166285326921,-0.016565095249826724,-0.2017069610507372,-0.06524481335150473
116,-0.02313168779377272,-0.005175090369674826,0.018571634095389526,0.026833234064234567,-0.026223049224503484,0.0018533845051060607,0.049552964603663784,0.19304141505665742,0.03943903033800122,-0.018982010722404012,-0.19796523937982632,-0.06878107913113998
117,-0.022482670923197327,-0.004941288239399877,0.018789348389196336,0.02373477443906344,-0.024939055113167935,0.002637357247526711,0.04939421753131295,0.19445921583991038,0.04364925377455383,-0.022525990302253794,-0.19503847634719765,-0.0733441239411191
118,-0.02902466886845017,-0.011502475348549007,0.01838876201808335,0.021877481125069348,-0.022525657385244986,0.0031847876183302704,0.0491594733747241,0.1947796282732651,0.048432251226675514,-0.025345650998739595,-0.1888938896238527,-0.07619142852091366
119,-0.025906653179849345,-0.00956184625866547,0.017211375419366126,0.023855194516007885,-0.020377956241586018,-0.001056373269028365,0.0473437563301859,0.19724211030282585,0.05124886802865804,-0.026502458061116042,-0.18663827810708458,-0.07804603315442069
120,-0.026010162345798574,-0.01158516262121382,0.015403637939329674,0.025319670828932793,-0.01952584208454236,-0.00398161999056567,0.04806296914402367,0.2014737407378502,0.053242212059759625,-0.02484543451086977,-0.1855173258016709,-0.07996438189320497
121,-0.02601480266660426,-0.014418517774542748,0.012462853390243776,0.02183056923714337,-0.018057769970402225,-0.003009757088082869,0.0488573465904644,0.20468898497738108,0.05955505967288426,-0.021810968577666616,-0.18076710922331832,-0.07971598935899057
122,-0.02073006379227888,-0.011680758898985975,0.007088230213310128,0.02127135207088647,-0.013747194004573622,-0.0031995447491839843,0.048849802717908876,0.2060598338330088,0.07061294215833952,-0.021566351299304183,-0.17427922487527786,-0.077371232982388
123,-0.0186403679823825,-0.007409222527982741,0.005861375090626996,0.020116533910285513,-0.008710153270927333,0.00023280836533509652,0.051821210119636536,0.21170800088367026,0.08011848697856976,-0.02285465033307791,-0.17120657975843093,-0.07711573205180164
124,-0.017299125149815055,-0.00782586279840259,0.00580369760232919,0.01945266448655486,-0.008102286694417616,-4.350514023723079e-06,0.05461898302509425,0.21531071771262522,0.08391989992748511,-0.023061794093834735,-0.1721097432753345,-0.07993018820481909
125,-0.01871356303647262,-0.008802473153352142,0.006867177716784277,0.019746147406796435,-0.009654071986347471,3.9084365729014775e-05,0.05462979181040776,0.21994762413550978,0.08363196156700708,-0.02623449913571537,-0.17308358944621574,-0.08183405681964426
126,-0.021032259934470762,-0.007204499453825966,0.010849675677937341,0.02255590957679831,-0.012837583097737451,0.0022572722507247303,0.05309500765944344,0.2230542883276541,0.08288504684419232,-0.02950643383809331,-0.1701935775692888,-0.08018227941217088
127,-0.025668672034142116,-0.0040017818456210205,0.013991141498163363,0.025775935525956598,-0.014377690113861025,0.006001411910284079,0.05010976189239159,0.22832437582589574,0.08498928917515663,-0.026663957157605146,-0.1634939889854034,-0.07719350546176107
128,-0.031441845511961455,-0.0031807832407382067,0.012399265463884281,0.0241616627961694,-0.01733292881391159,0.005615973195585981,0.052254782642777255,0.23288188833010898,0.0912181707349338,-0.02355321922568262,-0.15788778573702797,-0.07693694527880884
129,-0.03168208318118042,-0.006119938130383862,0.009558871735154201,0.02328914350108869,-0.021024025608748657,0.0031445652723983315,0.05371094672577579,0.2351220235443363,0.09935419394499087,-0.01778021274514447,-0.15776487483861956,-0.08065076607191489
130,-0.03233174339186968,-0.008077373862654835,0.013688633469025933,0.019996128391686213,-0.02288729929283881,0.008445267463816786,0.05256108891731085,0.23655079909397356,0.10549772031423676,-0.012507935917220082,-0.16223030404060151,-0.08639047562957786
131,-0.028347290739320283,-0.006066141168574013,0.018973671395125628,0.015161877963975189,-0.02247942300920122,0.01368323664210859,0.05397201622280028,0.2412396117868274,0.10771663643521702,-0.011490664407230337,-0.16727803815219558,-0.09178605871919772
132,-0.017447278028459495,0.003434224714749863,0.021748071241391644,0.01054073040415459,-0.018416616576903834,0.01570994478937593,0.0574907752679684,0.24762942960882295,0.10741101758620518,-0.014547564524927802,-0.16889109962640486,-0.09520263941532367
133,-0.016365763107948857,0.0051918817134037135,0.018001692829395614,0.010793637912310056,-0.012329095204227989,0.014940386390721202,0.058870779935596286,0.25163795701981523,0.10640372537417618,-0.02096752491741293,-0.16443099489048385,-0.09641865620320254
134,-0.01368157340884206,0.003122889680192781,0.010637644661881369,0.009208175334850452,-0.013340753567379652,0.009608953377961988,0.06254656316599219,0.25207958191777546,0.10551273255490742,-0.023944699057220846,-0.1556392620070099,-0.09710946546954614
135,-0.0020955045782427295,0.0017368370936587385,0.00847979998843347,0.006128095391665575,-0.0107603188056718,0.0030840575496414724,0.06472403711596769,0.25626306232797513,0.10729447656379114,-0.017858922667213555,-0.14769910121546367,-0.09876166608719238
136,-0.00037534391500009673,0.0007876827180666388,0.005672635477996343,0.004440132106423154,-0.006468402292179935,0.0014329407017146661,0.064512652707581,0.2626949940277474,0.11345901873392564,-0.010395631321853102,-0.14265344735254107,-0.10116562080556722
137,-0.005600861884523342,0.0034924958533275666,0.005504399553354536,0.004895855373506994,-0.004371572660917148,0.004006648582588035,0.06439494203824314,0.2724546034962643,0.12011081466762144,-0.007175595324031905,-0.13836539007262041,-0.10044644361400624
138,-0.009645233138286136,0.0032637360264677687,0.008246239522420845,0.0030357418429255503,-0.005497895872426219,0.006464033799277142,0.06325404435225387,0.2824286077033762,0.12418639314833682,-0.007019505842339076,-0.13367377570445205,-0.0959442629573914
139,-0.017363741181573425,0.008627964791345574,0.015041911589137322,0.011889978652665646,-0.01502176832733367,0.009508293581212988,0.0637190079482868,0.290948844989645,0.12950228341956033,-0.003723110422978612,-0.12945756883414455,-0.09206067370084318
140,-0.020153249838551837,0.014014965799116569,0.020279182430879627,0.011976604473465949,-0.020967230059416468,0.010080397315686083,0.06179685849357299,0.3002804486843574,0.1392598249943186,0.0023451432502611044,-0.13300482814414066,-0.09033763249047598
141,-0.019912576211259365,0.013518960409565302,0.02133686996111308,0.005458365499258579,-0.01944366502816442,0.0119540296904052,0.06489024980307453,0.30641303515740703,0.14846037147047655,0.005576291926387804,-0.13268694501395006,-0.0914993523180883
142,-0.012514563940865635,0.006119271252836338,0.01845911507180405,0.0028777272124079697,-0.01430578144831311,0.01277528093629303,0.06330697226927892,0.3081863079412807,0.14909762083455766,0.005363109415004376,-0.12910523815386427,-0.09640805415082672
143,-0.009927263545878279,0.0064051795051581414,0.017199011549218546,0.0013097879103485532,-0.0123820794895267,0.012808827611201291,0.0647961470961794,0.3167176400145323,0.15403583188711964,0.005027610388729925,-0.1260077091263819,-0.10167265412215155
144,-0.010217060218902813,0.011917704821094551,0.023001333538179493,-0.0011237145874631038,-0.015428138820519412,0.018466251263649897,0.06987001887224248,0.32403105143919847,0.16351882197772885,0.004751005035615999,-0.12620148480144436,-0.10345790915985341
145,-0.010283003194765258,0.023069112414654338,0.03170466137402843,-0.005565198650826931,-0.01855576285958844,0.028393618978354317,0.07704107154310705,0.33127524037613526,0.17265997897711638,0.0030795575779652556,-0.12622605198959452,-0.10291968446102011
146,-0.017792800163451535,0.028592384863518068,0.03458809838059125,-0.0017919758065861081,-0.021914662786113738,0.03314618010967605,0.07804310084873942,0.3401279584429113,0.17734945927410273,0.004652000727663398,-0.12176198069145432,-0.10253884403992049
147,-0.023581140831070956,0.027241139799881547,0.03248690084172841,0.004459952342256129,-0.02557431692160487,0.030870752404817924,0.07228596588906525,0.35007441098148834,0.1794455503088735,0.013009858337119429,-0.11521496270558311,-0.10262547287151662
148,-0.015798407989843978,0.02364059222610308,0.03164039882363341,0.0035299327881928577,-0.023898380352259642,0.028647227608881203,0.06805326637148018,0.3591452004480736,0.18368822480157174,0.0166390829530301,-0.110740418440529,-0.1030104940428108
149,-0.01290516459114821,0.025718170228465603,0.030858264114765246,0.001123466685399338,-0.01822418086051697,0.028697507971423692,0.07009646601710945,0.36971594217892373,0.19134960301420875,0.016544023364615322,-0.10844403229702705,-0.10331372191848849
150,-0.007718612809867638,0.03460435725566546,0.028411064938168175,-0.004439726393555499,-0.016883780815996202,0.02793401730048579,0.07427214225429596,0.3791893113103517,0.19805551267382535,0.017441404323363406,-0.10773583144569916,-0.10187772738929031
151,-0.010814759269814747,0.030869496932816654,0.03848705021432998,-0.006381572571689247,-0.02346984668405063,0.0353446092585933,0.07695342445956244,0.38600095435631376,0.20438447311003835,0.022997149017405488,-0.10892449419298626,-0.09809003455919123
152,-0.01716946575804653,0.031228787783956224,0.049264822040184855,-0.005415751996385037,-0.03203608584109387,0.04125353699608346,0.0805224506888795,0.39303410354907997,0.21303020405316958,0.03058429849739707,-0.11094275914374109,-0.0942263085107837
153,-0.0192245773017607,0.03316535435901978,0.055597786408842526,-0.0032489300209631727,-0.03740513687439166,0.045407232198810196,0.0853546528859348,0.4006737106215818,0.220060319066705,0.03426029452960505,-0.11366770759462831,-0.09227155271110346
154,-0.01514662158167663,0.035166247051995114,0.0576252008098631,-0.0040978232905257775,-0.03842944427018123,0.047409860321282596,0.09163186023454023,0.4136050701825632,0.22376478978561273,0.03416580518410281,-0.11919443819766563,-0.09253537331144943
155,-0.011543194698802557,0.03804763693244566,0.05459381395924782,-0.015790907357636226,-0.033942197477062834,0.047269170176335,0.09269190968126542,0.42513455709678977,0.2267940025571573,0.035706183607360026,-0.12342450303989842,-0.09547846231355091
156,-0.0008233480714561793,0.0458295666947751,0.05118068643090735,-0.0243054118880537,-0.02989895627455816,0.04768125706360724,0.09019330796655553,0.4348007084270103,0.23359440384291083,0.04061481378802595,-0.11736249727022209,-0.09818167715611194
157,-0.01566268979865789,0.05260813351583832,0.05771669053234511,-0.02316288501688045,-0.03667275873326629,0.049875829356354456,0.08650260922251385,0.44698841003625545,0.24399580307073157,0.046230000285783786,-0.1161860521341115,-0.09382670051098903
158,-0.02525805699082522,0.055219132444830774,0.07678832323312404,-0.014297945986466724,-0.05525658234624539,0.05895847720940433,0.08679821312366601,0.4487113124264245,0.2532990051364414,0.05085278929078338,-0.11578620923065984,-0.08263656988168962
159,-0.022243543311284898,0.056878169171368245,0.08505530873537984,-0.006171197905682702,-0.061346562593559084,0.0629341794605768,0.08884907327120994,0.4511110785730763,0.2568993408061123,0.05780023930970564,-0.1135765596242347,-0.07386871803175825
160,-0.016787884760943964,0.05187375634537335,0.07904876084931978,-0.005657236475730066,-0.055139290289277054,0.06279326242290449,0.08998341711212235,0.4573051237951067,0.2610706962853662,0.0613229638014634,-0.11037438122141331,-0.07249721129785903
161,-0.012111902558220249,0.05227176883025222,0.07327891097932251,-0.011556833125180896,-0.05256710841981085,0.05839765057243074,0.09277255857771591,0.46769593669883575,0.27018162670917995,0.062090065672800544,-0.10782018424933591,-0.07492027407537596
162,-0.014468859347228587,0.05696319201052438,0.07822495219383727,-0.019426405411312936,-0.05178449563339412,0.06494532243426188,0.09563072431767639,0.48009981245690564,0.2760692953077051,0.06277000751812489,-0.107204234395138,-0.07739000485416
163,-0.017800469944788712,0.06809111773752513,0.08820361418031594,-0.023770588372524167,-0.05468886213507253,0.07700894891230148,0.09863355245971392,0.49141816079432576,0.2839586296389453,0.06661228986244906,-0.10743403185737609,-0.0801059674983349
164,-0.016717940979231648,0.07150494178219657,0.09386835502138854,-0.023390139504023445,-0.056501541823177376,0.0836933804858055,0.10093946629622796,0.5012365318543561,0.29260784508718574,0.07145773247330131,-0.10485559532108756,-0.08398467508671552
165,-0.01342426741314591,0.07131586359550228,0.09470447228227963,-0.022561681848563053,-0.057432198177415586,0.08401690002290395,0.10373105677957939,0.5118692683206673,0.3006454159553743,0.07463402120624256,-0.09879820463423031,-0.08759036259648888
166,-0.010649028741858697,0.07133587574867539,0.09547755028362764,-0.023919119593905563,-0.058891986576499133,0.08371672862584238,0.10414224162783614,0.5228674704301268,0.30908664757526777,0.08121886053919916,-0.09279912606359482,-0.08903075011378356
167,-0.007819695211459025,0.07635431044290211,0.09758149879997954,-0.02910091729910589,-0.05948809608688435,0.0862765418899851,0.10476049254425207,0.5319977114333458,0.3165712651791565,0.08492659319109376,-0.0874301534320739,-0.08912285747654708
168,-0.003932821285645094,0.08311933602187979,0.09917798327984756,-0.03377164400149405,-0.05846756648916218,0.08969179820750936,0.10498136964521934,0.5397674773246944,0.32263297700990606,0.08616465230867526,-0.07967335309212828,-0.0891629777927286
169,-0.005520560340381037,0.08859670728438285,0.10017291486427302,-0.03618043018378401,-0.057659853827189425,0.0919919082461203,0.10562180823851672,0.5525278912060079,0.3319458148814834,0.09042745302934237,-0.07117520745523033,-0.08779078398124543
170,-0.011543389407097142,0.10036300460283652,0.10238794869078904,-0.03703901284900053,-0.058866356210242776,0.09906787562911346,0.10861909467765679,0.5642555776741753,0.3452562558047316,0.09694538009650197,-0.06726491307914705,-0.08393277752644376
171,-0.016614258386295856,0.10672508097445359,0.10647116618648281,-0.036154922295312204,-0.06257726723052388,0.10375818267097559,0.11140625123154624,0.5752820002556958,0.3553208318242338,0.10159405631165688,-0.06748741454377993,-0.0800691145369825
172,-0.018918776960187116,0.106023436479936,0.11107387087577131,-0.03338820190418956,-0.06741468600555134,0.10581927861130522,0.11168891284457949,0.5849300851590837,0.35815062233789996,0.10461310104677515,-0.06673519444942681,-0.07887311228738322
173,-0.017779068538352732,0.10565272765992034,0.11528583965079903,-0.03119023674883907,-0.07095054471920502,0.10695826654323956,0.1110956015558709,0.586904670940588,0.36034257785602314,0.10815686648491195,-0.06423739817990742,-0.07914273293102919
174,-0.018882032770014802,0.10281617571656895,0.1194740544740637,-0.03886647991180832,-0.07247242879780215,0.10927025102979099,0.11036377486059654,0.585912175987084,0.3671929415880455,0.11430931850561463,-0.06313453483884013,-0.07831549428889177
175,-0.019362080139848817,0.10700771210848711,0.12234348751171681,-0.04910990125477456,-0.07240393259549818,0.11149285359033545,0.11039244043265498,0.5893790268051233,0.37699615788799806,0.1220433656966029,-0.06307041149152019,-0.07614025746962957
176,-0.015019602002339774,0.11319006779227721,0.12247518801169141,-0.05521359769184923,-0.07098693419008238,0.11464490975625669,0.11069989225103194,0.5928894397975952,0.38505283046754835,0.12813006257256251,-0.060630560184333576,-0.07308416674334219
177,-0.010549266715353792,0.1164891817448746,0.12243781125443928,-0.05846028537821721,-0.06981252993520849,0.11609959455562893,0.11195315380269341,0.5993696462319291,0.39025958970832275,0.1317415190001037,-0.056036638065184524,-0.06928767410248475
178,-0.009364371120024688,0.11878983431791376,0.12498584099429569,-0.05967858102914879,-0.07064869046425763,0.11749765907458848,0.11402927477733737,0.6054773431468786,0.39455507128868345,0.13503702931043582,-0.0521194039336073,-0.0663147148306435
179,-0.008504069126837814,0.122135276449651,0.12854632412226757,-0.05474589727718038,-0.0730205524185373,0.12094841508853965,0.11598290439004458,0.6077906761738094,0.39801461031066165,0.13929044710065236,-0.04814965760109993,-0.06461400994744623
180,-0.001998818564874761,0.12627531977916218,0.1345759388443594,-0.05636242869652579,-0.07538640075081679,0.12732627779985162,0.11730675472633847,0.6055744835169324,0.40050487609055546,0.14445397640693403,-0.0421484194421793,-0.06191456278765872
181,0.0010227499180904334,0.13318175506301977,0.13985218711858685,-0.06420738262362186,-0.07626951594937695,0.13290115450540343,0.1165757005505838,0.6021325988804499,0.4039748543667305,0.1509014088614243,-0.036094617696117534,-0.05871333234785896
182,0.00312309930062981,0.1426854120165034,0.13981486581082567,-0.06929705867368913,-0.07158338179453781,0.1385773027626771,0.11338193056157353,0.6011251123047685,0.4094048918175584,0.15792397563863178,-0.032118529489917516,-0.05845372850968582
183,0.003296873729500077,0.14583061289707833,0.13821327415467632,-0.06986815314559303,-0.06872679694725453,0.13945883006317955,0.10987213654095807,0.6025292595712707,0.4090151137051723,0.1636038311192194,-0.02844019176924104,-0.06041868074812587
184,8.461967075241994e-05,0.14459076727152476,0.1387438828247995,-0.06740936781749127,-0.0707353799229018,0.13935964049509755,0.10792647148222087,0.6050770866585332,0.40366779400204855,0.16683710782247052,-0.025938473097835594,-0.0598913318336623
185,-0.005036283539771501,0.1441158245455498,0.14349016762148098,-0.06466160700530812,-0.0730821675226044,0.14165767494260129,0.10878901209208786,0.6073971325356589,0.40066766887613675,0.16812915023800865,-0.025272792528157773,-0.05457685885120453
186,-0.007892306803226765,0.14652167052846515,0.14948026648988794,-0.06480063317605626,-0.07531706840450487,0.14610756092319646,0.11252658721517031,0.6063370163180779,0.39976343726397084,0.16997237758358769,-0.026142884555074592,-0.046583002747094315
187,-0.006714200886957504,0.14658144196385525,0.15416221134899494,-0.06905775833862526,-0.07522484528380691,0.15137855874043807,0.11217224119829095,0.6005840008429718,0.3988018351631466,0.1753826315230009,-0.02868287984821687,-0.03986207419606996
188,-0.0036917833862691977,0.15190416514644456,0.156462517030896,-0.07323720461644906,-0.07889609215056091,0.15519007317268324,0.1092492539234036,0.5922625238689506,0.3961078246787074,0.18149081954928192,-0.029910258532512477,-0.03689599325922725
189,-0.0008266358117079674,0.1558555157219223,0.15441057333529334,-0.07617621269812672,-0.07981669838961897,0.15770884996088036,0.10493006969243257,0.5831763254956852,0.3920530428435073,0.18752470981296387,-0.02832234969949562,-0.03606672011072763
190,0.0014892591069743631,0.16012130122351143,0.14701038593787968,-0.07946478884408524,-0.07782361769585072,0.1536603841148328,0.09716709570204743,0.5747442505754415,0.39089906648373174,0.19403411724362882,-0.025570768298169528,-0.03336965078951873
191,0.002953291954446432,0.16479685874652994,0.14441886414949892,-0.08205932441504557,-0.07869736360988783,0.1529946541903422,0.09400400934567665,0.5687000313661671,0.3928627798042689,0.19694610082828173,-0.023208176421530644,-0.028588897292804977
192,0.0030984439840894516,0.1675220523829241,0.14665253282140894,-0.0834921759382216,-0.0799148083984419,0.15565602134914594,0.09363684207000805,0.5642209230678751,0.39268877440551286,0.1945135778395004,-0.021848985426037495,-0.025892102681473878
193,0.0014100119251026985,0.1653492931172845,0.14810690686178266,-0.08315034874759608,-0.07923296693671478,0.15672388368608478,0.09302964839026928,0.5582774550758579,0.38722636062162724,0.19234443907519086,-0.022790244271464036,-0.026476799263526987
194,-0.00025408240275806224,0.159832584060277,0.15062218104310518,-0.08334086877124572,-0.07536044248337173,0.1562341146357041,0.09089904796924975,0.5499306945150859,0.3817625330575508,0.1911201767688294,-0.02450095982053328,-0.02559406097368109
195,0.0006763948580551064,0.15886344942261904,0.1527518427787303,-0.08130690326577517,-0.0755120522321418,0.15681437818468769,0.08786638608100025,0.5405218847752817,0.38260228411935354,0.1903345954761758,-0.022498406218499623,-0.020455743163886007
196,0.00416966850029046,0.16192967171575962,0.15450893861150114,-0.08041121146127625,-0.07459769441580962,0.15768435415701632,0.08512877552405998,0.5291929721421805,0.3856073957001193,0.1885627763150146,-0.018592320929742428,-0.012697003486426384
197,0.00845604102114976,0.16548790270434316,0.1500050893253651,-0.08436088386750554,-0.07135987199885072,0.16070554056953013,0.08186258153314471,0.5137315560240246,0.3750266884286078,0.18414611524613242,-0.012878866779577555,-0.007532324789788256
198,0.014848557457898988,0.16927262674827537,0.1506294846838095,-0.09044668308651743,-0.06795273492674149,0.15963475387490023,0.07761769105579167,0.49698055523336065,0.3699197473145777,0.17754082046034386,-0.008460256012112834,-0.006344417703988678
199,0.01343949309686816,0.1697285217997501,0.152097990686084,-0.09033231241313977,-0.0664100881249271,0.15556681858237106,0.07464627044535727,0.4837853794051267,0.3653222127701596,0.18340715652364314,-0.0013156878344990144,-0.005845563349610047
200,0.011160302831466132,0.16638387100453333,0.14863636402055772,-0.08799268811689312,-0.06499584585931162,0.15508964149557417,0.07353826129255792,0.4714948409269621,0.36607308644602066,0.18897866012979206,0.00961167915359124,-0.003673068530577063
201,0.012428017041600492,0.16402573210725752,0.14467933749245815,-0.08746159542908497,-0.06162299443927782,0.1539499649764412,0.07172578049176132,0.4540683374435712,0.3572707897588133,0.19127533259002266,0.018798216449253835,0.0011669428227178494
202,0.022837366181900815,0.16138163783122067,0.13697418537834827,-0.08746791935230563,-0.05466902415562508,0.1497603594738969,0.06752755884171835,0.4323864000542994,0.34145925509257435,0.18924166985164714,0.022749222797086476,0.0085078976314843
203,0.029645164016266348,0.1569575411470459,0.12696956103779278,-0.08760230767044985,-0.04687644815715695,0.14501303176711317,0.0618884095414926,0.41174384384363133,0.3307893866383721,0.18676995655908085,0.025510278915042307,0.013522126956764535
204,0.031841017500020406,0.15389281100991642,0.12026274672137349,-0.08861230859329235,-0.04302579089411855,0.1439436920555729,0.05559522254750201,0.3947917652653164,0.317076525261403,0.18617259967305083,0.026882506392036102,0.018482384751764395
205,0.03228553506679708,0.15532683062256997,0.11809769480480156,-0.09159285040548945,-0.04137864572824721,0.14663473851518494,0.0510752558840104,0.3815064338296116,0.306857238465385,0.18397537192492328,0.028225328773417994,0.019959923753862463
206,0.032818348919308835,0.1605959506563565,0.11671563911617547,-0.09507910280258236,-0.038630004645198196,0.14312686346086176,0.047214784631153674,0.37072015455803287,0.29756440965963504,0.1791930685987803,0.030858774977941074,0.019312274277255116
207,0.03377460022454775,0.16243261330373115,0.11300943240343031,-0.09736432909705556,-0.03641329103242326,0.1370683137812211,0.04365204653194051,0.3588595750816854,0.28949642920879365,0.17556081317184635,0.036399489599010564,0.0216598493605281
208,0.036456702051526124,0.15805257850218318,0.10673595840752653,-0.09845287944383918,-0.03688436444634532,0.13123731397746996,0.04258740730498237,0.34154709805554473,0.2809029198279864,0.17553007847071017,0.04392523619636321,0.02709897281435012
209,0.03616150686940443,0.14924771019535088,0.09945225225368212,-0.09426939473723843,-0.038474112704463694,0.127359355729082,0.03565471606111351,0.31896366994760766,0.27257330109472894,0.17890826748113572,0.0490575674491617,0.0331218771014918
210,0.0319310563365552,0.1416092122794932,0.09350030837007517,-0.0851562252914543,-0.03812577599426081,0.12222227248280773,0.025698651546303568,0.29435361256375114,0.2653587682692817,0.18377920349163915,0.050302494498907425,0.035490688597595445
211,0.029473864041936044,0.13329470776027172,0.08603817153487539,-0.07977037688453419,-0.03450803082501704,0.11266152703806892,0.02106016540134152,0.26889186161359013,0.25332938983557596,0.1871430946279971,0.05090545915652611,0.0372053448088682
212,0.03211722750021428,0.13084545320945817,0.07994743191928519,-0.07986743133826638,-0.03255772529558435,0.1060056490232032,0.013564483321556166,0.24499472108240644,0.2396146870438292,0.18700355500752408,0.05312539530187696,0.041599411140100774
213,0.030356354069132067,0.12964569037584267,0.0817486335318523,-0.07838711320591732,-0.028220088411972197,0.10533627231350504,0.005739485608149075,0.2268070257219447,0.22799059530752372,0.18349554199805612,0.05618072036513651,0.04498312981926881
214,0.030717427854942865,0.13147671470122996,0.08558240239476181,-0.07897378710936777,-0.02625142921188777,0.10749635935011545,0.0039422690153528145,0.21235566027702005,0.21805306428402682,0.17918763552455652,0.05945362358170893,0.04485934243274441
215,0.0406724261314472,0.13201274628268564,0.08048000913888068,-0.08067553831166419,-0.019437290969500864,0.10729424444841046,0.0016730057834417333,0.1957849875149194,0.2066620390250949,0.17630861961517294,0.06428382968868854,0.04440196833202571
216,0.0516782778282088,0.12791618925128417,0.06706761873969189,-0.0831648939323937,-0.007045478085974697,0.10061781631221509,0.004231784609987868,0.1794537054894324,0.19196939211627195,0.17325377232661496,0.06545399395150292,0.0437754056994667
217,0.061381888588150975,0.11877158490337675,0.05667030686663489,-0.08274506714814595,0.0035571768791000753,0.08795502695595256,0.004064607818614466,0.1634509619809495,0.17645879231536307,0.16915389361296587,0.068199676821133,0.04020125065263491
218,0.06399904217553928,0.1051582909239395,0.038394912157986356,-0.07944505194068449,0.005195665582333305,0.07431790189366423,-0.002032946674562698,0.14777098628616966,0.15842083526708794,0.1667411607527121,0.0699041978065482,0.03610753808351733
219,0.05911529974181982,0.09798744459398287,0.03679958117521004,-0.07546789706376378,0.002399845071754601,0.07065096249167327,-0.010540205186901734,0.13527462598919382,0.14275123129280184,0.16543758941687398,0.06710164726489308,0.037704944103884405
220,0.054161055859544546,0.09411420279534626,0.03766669981879591,-0.07034744780853136,0.007691393124610357,0.06891279435975993,-0.01838505419255219,0.12387193153567996,0.12778908085402146,0.16088227626884746,0.06736321894301678,0.04034485638418406
221,0.04430503831635327,0.08846086552614355,0.03604905072869856,-0.06576733646550775,0.002113017051308998,0.06516708732287751,-0.023687853758609472,0.10664356246934148,0.11541769726966744,0.1530164794147492,0.06764853936698424,0.04221892907637776
222,0.04993128963710146,0.08418470617612561,0.028647394201777046,-0.06157489145880471,0.005391222758317963,0.059658533900144264,-0.025397573537390118,0.09191447975880125,0.10348155412623536,0.14623514796949338,0.06756570487527996,0.04628129951874434
223,0.05627296625313912,0.08267011489665738,0.02601605308468328,-0.06535057972346418,0.014769340773021736,0.05738771610910488,-0.02332757622879183,0.0810561144936273,0.09124124867698508,0.14283908273736085,0.0685979777926868,0.05024471226215806
224,0.06090580625583933,0.08411248098154595,0.022252038450522073,-0.07007683813303536,0.019597339573996966,0.05594181333716447,-0.024060800647380524,0.06903587993120716,0.07901238080625303,0.1410190174451998,0.06857916139666229,0.05053613736229902
225,0.06105484119948058,0.08078166861006222,0.016660991947641715,-0.06584983210587725,0.01831872103158398,0.05399033390860145,-0.024519676809001655,0.05347222392327185,0.06642564672948387,0.14307644753033147,0.06272784419305572,0.04627391400178161
226,0.056278655413126946,0.07157263160074975,0.010994198549748316,-0.0594425923638264,0.01553725667729584,0.04774246235383252,-0.02673724680821636,0.036437205044109286,0.059122626954736635,0.14180593956501866,0.052953720410404484,0.04061644748856822
227,0.0520138064800242,0.06490641965747246,0.007710492393664358,-0.05126387147660065,0.01523440698699573,0.03983116364820945,-0.02717386790317778,0.027350115785736095,0.053665487665288024,0.13534510463372884,0.04708918485368259,0.037352412388988065
228,0.04883085973981298,0.061599766366579226,0.00846096451914225,-0.051924071772700565,0.016718876417502873,0.03385015902296293,-0.02866840014233176,0.02470936120129495,0.050380851115138674,0.12923593142822098,0.04694534533806738,0.036242347181164904
229,0.04882901810219369,0.055940046231778784,0.008615818705991523,-0.04964886745244573,0.021287657756122895,0.03107421465705438,-0.03083775688506926,0.01968092025298318,0.04497153794794799,0.12973889489426707,0.048085525550122854,0.033544056396831216
230,0.04655770804847366,0.04886042211385612,0.0004748078868992752,-0.04387297162671791,0.025420013581252725,0.02842608542774818,-0.025603981593742255,0.012234753046054557,0.03557756518445423,0.13205117778613326,0.04865347322790069,0.030756351494090815
231,0.04765583871500367,0.04822806197742038,-0.0003651482111183043,-0.04632804132964216,0.027950200402554873,0.025204446114580725,-0.022466110564791923,0.0027044907496243525,0.02675108004675586,0.13295007797327185,0.048391725176423414,0.02737724798171461
232,0.050098342440201865,0.0468250024820527,-0.0024067714599669277,-0.046847763444557426,0.030588217877400237,0.02303214820181122,-0.022376629421988023,-0.008530661328018798,0.020819857794873272,0.12750344452886092,0.04532738825709423,0.027304755270308588
233,0.04776230678400905,0.047016244158877694,0.001628950965729339,-0.04502114390853428,0.023990726314606012,0.025024322973199873,-0.025713382948687833,-0.01786770250593903,0.015553998478399195,0.11870066142677416,0.040442432813572494,0.02554149535018458
234,0.04648072761177058,0.04782596850961626,0.008699278603375864,-0.04398571212483374,0.02486924408518308,0.027149388164965357,-0.03050358925686486,-0.02358037886913224,0.010964627897146584,0.10996872249500209,0.03807847919689656,0.021932536242205012
235,0.04547124846801038,0.04485296977470146,0.006100502667261633,-0.04470218370824261,0.020866430958396118,0.023614641288216505,-0.0325450346770666,-0.02845800354926273,0.008121406139620223,0.10633605425264245,0.0380496054123558,0.017313179727215387
236,0.04485463764530958,0.037116645394168174,-0.006871423752959061,-0.03937173250316897,0.027044088757156047,0.012735276646920096,-0.036536418760606315,-0.03231972839071459,0.005285888493797165,0.10679676250240622,0.03568534056003721,0.0143926804855354
237,0.05021020338417762,0.029899737230876057,-0.015397933600050647,-0.03844106129095694,0.03600630447462466,0.004050429481685058,-0.034598652936268876,-0.032720903194770126,0.0004855508399434841,0.10323585893220596,0.030781805488104032,0.015296501916385895
238,0.05021280216269215,0.0263488480572727,-0.017808093980487993,-0.03666691609341258,0.03778544627359721,0.0026824633090307415,-0.03148815753977275,-0.03242784749798176,-0.0014615406530913075,0.0956829158748844,0.02771621406423418,0.018942839050680185
239,0.04455270015712931,0.02387752590007102,-0.01702579162337342,-0.03260120401203034,0.03336726610778748,0.0001287140879635447,-0.029521566272431052,-0.03526341249281166,-0.006192808740736425,0.0910136553752349,0.027633608312808703,0.02109505299154042
240,0.03926622680346194,0.022674035772276918,-0.017389198520444803,-0.029178374691176942,0.030998872415172928,-0.000162840674187488,-0.029025787986750894,-0.040252596853625214,-0.014193759083452405,0.0911905868794498,0.028192903948722335,0.021612589744446187
241,0.044804363776350484,0.025223594898801403,-0.020549160697379963,-0.031869892058056154,0.03447051839883037,0.005490238424166911,-0.03019831477884645,-0.046601752918985065,-0.01851764123954531,0.09218540780579323,0.028401586250035724,0.024529599297130902
242,0.051527778901812,0.029314070491542138,-0.02235358060961093,-0.038807015680107165,0.03761851746497157,0.004857443498172121,-0.03213512121380189,-0.05609694383173548,-0.017430680850085305,0.09094997279534836,0.029741818546782334,0.027895772452987463
243,0.05521243543468362,0.024324666645015612,-0.030361852994678015,-0.03798431567168365,0.04346093927253822,0.0009001958186226379,-0.03215119737446667,-0.06650214813179581,-0.015538422263276196,0.08744946081552674,0.031983484356734634,0.025564631993089604
244,0.05264380335680636,0.020507549205099198,-0.027533073138272905,-0.03670703231625042,0.04126949630556135,-0.005897771909140363,-0.029091142265070716,-0.07103484973444153,-0.015619788387961804,0.08202239287457433,0.03396754212442618,0.01915884696592103
245,0.05006645971503938,0.01721093136356067,-0.019529863986637058,-0.03202478652273021,0.036918869775978046,-0.006382282160854971,-0.025575917452445765,-0.06859768914093915,-0.016639492378180708,0.0748621310126227,0.038648795073179816,0.015630253238772998
246,0.04503055546576562,0.022267378202685758,-0.01613521069587351,-0.03221373287073582,0.03260071766045454,0.0010134417498271417,-0.024593286508745725,-0.06571582959400726,-0.022159037499687666,0.06875333210743133,0.04447387903978087,0.016258427617209505
247,0.036842832702293445,0.025891442508214485,-0.01294264272226021,-0.02975322858868402,0.029602030719143878,0.006486274955213801,-0.026372261510073363,-0.0650117017325128,-0.02279185791012992,0.06751932943172448,0.044257189711915446,0.017015245831890395
248,0.03192699270336983,0.0200131021246993,-0.016763226121103793,-0.021666922496667178,0.029998923419475104,0.003929072238191049,-0.029897298489352468,-0.06290077983971973,-0.026257178780977018,0.07007455701457557,0.035002911345300786,0.015255776659746298
249,0.0327696652728349,0.01078333335147734,-0.015499695880838067,-0.013664556095691605,0.03204482287457088,-0.0014183543218936265,-0.033049270005230405,-0.059231976318623134,-0.03274633185967301,0.07199973088939554,0.024189174002039897,0.01149422799925048
250,0.031214044907829662,0.007047101838868301,-0.014322832056149093,-0.012930345635345761,0.0310095203700047,-0.005146019760913029,-0.03337131329774196,-0.05805001077417088,-0.038158235163080305,0.07211503074999094,0.0198307245854994,0.007582122821102318
251,0.03129687262937772,0.005621936757008443,-0.01806636227977859,-0.01874047237496583,0.03302363145648946,-0.010481459922918955,-0.03200076439898573,-0.061246574568556506,-0.04118826617093146,0.07158792853047578,0.020766332755841166,0.005952990925040102
252,0.0369174124249521,-0.0018773801337468934,-0.025138740669334116,-0.015906107129032683,0.032404001263280746,-0.01674355312629855,-0.0318037402152744,-0.06708793634835036,-0.04303218903420878,0.0703601776209154,0.02799826668711014,0.006238778350234817
253,0.0408794167185505,-0.007421579292200886,-0.032310054854788495,-0.015115009696604863,0.03811269862896365,-0.01837736318395284,-0.03205590209036026,-0.07167344513914757,-0.04418039182734398,0.06821632580700607,0.028397229891063934,0.007849691097911976
254,0.04223612727552735,-0.005472895425514636,-0.03403418546767972,-0.016376171325468487,0.039316214429625324,-0.01958452909140991,-0.030458129038029656,-0.07255254588924934,-0.04537755983987412,0.06523153330019874,0.029833172582723354,0.01009698132748163
255,0.0316747336192372,-0.00019715029191318123,-0.02983013235917538,-0.01613812270404645,0.03240675210713521,-0.016541265627120195,-0.028282635934253987,-0.07085698678590859,-0.0456328926323847,0.061272285670187734,0.03378955953611252,0.012011941870172838
256,0.021837866729319866,-0.001519662049235579,-0.02878804589499507,-0.010432852783806745,0.02651664869797276,-0.014147121888102354,-0.02818439339067917,-0.06771945815435218,-0.045525499062622064,0.05759896796738952,0.036700308400492154,0.012584296230525423
257,0.011984626857956471,-0.005398784011167272,-0.02174501763502957,0.0009350752252192812,0.01807572487641422,-0.01356373145841367,-0.029141980671809044,-0.06318027047276444,-0.04530223662169123,0.05596311016882549,0.03524464248169211,0.014270130833646224
258,0.008330113319864517,-0.007404096400125917,-0.02289147984846001,0.005693908678128079,0.017322943450285552,-0.01414105604028009,-0.02901336838842339,-0.05857623753528604,-0.04526283588070377,0.05613158798077949,0.030887865106496222,0.01621964966088103
259,0.015226508441286424,-0.005697099522280244,-0.025490859592982466,0.0014084291503808424,0.023382056604671138,-0.015963606126226784,-0.027815611135605777,-0.056067566956623044,-0.04945141968280418,0.056884605154210205,0.02772048482897608,0.013195332386286732
260,0.01891316898739831,-0.002764310476744136,-0.02056604263033599,-0.0018909872629432022,0.025612631010514905,-0.015366005702049712,-0.024743672055050403,-0.056810105065921906,-0.05328600107884759,0.056774503788217495,0.02654920555691749,0.007822666462081494
261,0.015728915389079882,-0.0022895248007466368,-0.021336123756753478,-0.0005872560178539175,0.022139981858126632,-0.011804991497176495,-0.01895163201444715,-0.05925740081231386,-0.054136413827373865,0.0540317995858838,0.026610200877968476,0.004013271996134379
262,0.013332138536611762,-0.0028656293589459994,-0.012443584845466416,0.0009065899290133655,0.01675731825224857,-0.009616950876322541,-0.012802946659765588,-0.06000545850493552,-0.053296722396417355,0.05551355449417947,0.027874282885738844,0.002147652429993329
263,0.014393223016204037,-0.002099047782937402,-0.01350461274464301,-0.0005476678347056917,0.016190520716603485,-0.007855642957935456,-0.007698712387024308,-0.0575018686394886,-0.046534719888180635,0.05748455784737684,0.028853113857630196,0.002470338845511056
264,0.02070751970507173,-0.001974685028094031,-0.016701629973009006,-0.0037562300579747736,0.022442636028049384,-0.009812408922026408,-0.0014732870483041977,-0.05283811472480143,-0.04317088978586043,0.05530435210287282,0.02942923901100338,0.004725019657465371
265,0.0277626636932924,-0.0063920636917037185,-0.02517112783507073,-0.006205774260229682,0.028132005729202783,-0.012932158837647069,0.00504749582718593,-0.0482446038346207,-0.04541605587054077,0.05049118952312883,0.03264357461632643,0.0067977838676926
266,0.024674234603600544,-0.007119731327929375,-0.02982228488641346,-0.0060395046891962255,0.017509353044425503,-0.017651276399528078,0.006662949701243696,-0.04540237578985694,-0.050026182757061936,0.044119927881245254,0.03262236554853579,0.007025657498210599
267,0.01723903620847409,-0.0047695740472307666,-0.02697850822581687,-0.003211625499110096,0.020371597041020165,-0.019836807320340474,0.009574220504286184,-0.04394318391832189,-0.052990273589112645,0.03822180651908668,0.02583549437330088,0.0046206701778026375
268,0.0165679553227289,-0.00269945113608043,-0.023548497001815008,0.001049482758246463,0.023813113740887647,-0.018493407397115927,0.010967845958454542,-0.04330099154052648,-0.058497919040258424,0.0342965635391094,0.018477417384851834,0.0009962101546522363
269,0.011027298392186748,-0.003367834175772348,-0.020403266918475244,0.005101745029415454,0.020768826764773665,-0.016035536430994715,0.0095602284999372,-0.04421678569428732,-0.06071398970935283,0.0310879722163982,0.023412612076495896,6.3443444719119e-05
270,0.007871467532757068,-0.005791813963351697,-0.015351052623064538,0.007236139100452663,0.014264473430980211,-0.013300193749999786,0.007879829601305219,-0.04644043151121077,-0.05694144777958276,0.03131548168263058,0.026743225479058937,0.0020077412692415045
271,0.000436299487850407,-0.011423027860928081,-0.010992758850596186,0.009819077736307788,0.0068955872272450786,-0.010201161271749158,0.009117401693349104,-0.04701747356142963,-0.0537718873411771,0.030042949804132194,0.026804416575957783,0.0027433042096076735
272,-0.003814800443790803,-0.018442767558807235,-0.006954072685638132,0.014476690262897163,-0.0006174262038570674,-0.011678039124219906,0.010474341313406237,-0.042306075981512925,-0.052973345333237644,0.027479807362168887,0.026158361753612018,0.0015575258143192203
273,-0.0030226573559695123,-0.024002172939491334,-0.004144096110989381,0.015253849245738478,0.001824802346934289,-0.013087751746517114,0.012192638499544814,-0.03346202798644936,-0.05512159653728286,0.02607205462505667,0.02587352831136383,0.0010193543186192283
