idx,I,II,III,aVR,aVL,aVF,V1,V2,V3,V4,V5,V6
0,-0.0018651538177671973,-0.005085210843137504,0.00517345966624571,0.004352988750517385,2.1417123890165625e-05,0.0001325483548570705,-0.052565319237581495,-0.1298412450857349,-0.06470316892007436,-0.06164682045805052,0.00794583618603141,0.003790369621514092
1,-0.003827041763622885,-0.01509436465777544,-0.0010145576349701556,0.008771989790919726,0.0011971811562481527,-0.00720273774921764,-0.05235462290279948,-0.12452010467480218,-0.059072616209883515,-0.062081128958904344,0.007657032676975435,0.0016973569104781969
2,-0.0020111660797054306,-0.01388553232372065,-0.00798089971744343,0.00832710224957384,0.0035401284168138005,-0.009209908742248508,-0.049064955314284675,-0.1194726148687289,-0.057802767667731965,-0.06328931928859818,0.0074853259963555616,-0.00033687756396020424
3,-0.007854538140322942,-0.014966062307563428,-0.009205204545642234,0.011549283966408773,0.0024978270066709223,-0.013356741584606476,-0.046626865757897595,-0.11730928501890876,-0.063385822630153,-0.06366851470380835,0.010191194956523097,0.00039011298208465467
4,-0.010359050045552095,-0.028796440859586617,-0.007602249475007643,0.022360318076846665,0.0006076851829681417,-0.013918067982407138,-0.042945024667586804,-0.11807035768290261,-0.06758076278046882,-0.06473396524408048,0.012615727255135184,0.005139428779230203
5,-0.004747722759497922,-0.025055547618814934,-0.0051144834335348464,0.015698938050858514,0.0002589581057437884,-0.008780881786951984,-0.03746339231228518,-0.11853804039978927,-0.07005343308558556,-0.06689055466564807,0.01270806954344491,0.010639860839866747
6,0.005266963954999899,-0.005559148649435856,0.0031700160791673683,-0.0017426906961505936,-0.0008413484383746773,-0.002030501967036632,-0.03086654843975372,-0.11698885482372974,-0.07203382960247785,-0.06850422445654068,0.010750950517890177,0.015474554846445887
7,0.0076915053711079685,0.01172038854157446,0.011746582531695422,-0.00869890494634325,-0.0026646834611161493,0.006852929715389011,-0.02718586119232058,-0.11526843664978484,-0.07342750320247948,-0.06799282103611298,0.008631398389382962,0.015627554865468893
8,0.013093944246168932,0.023119083357794272,0.012730839181968568,-0.01516272434342656,-0.00572368029526657,0.016274841920524863,-0.02727703730943516,-0.11325604753222031,-0.06795312377666965,-0.06520091600127208,0.0066361736210738265,0.013317370660930347
9,0.014741693786225333,0.015489760783121122,0.012196667625999425,-0.015848292415110998,-0.009887353949060124,0.01583396824006297,-0.025782593895304254,-0.1085676419315729,-0.06140265252860224,-0.06305674810420535,0.004701425817747476,0.010964344637039408
10,0.003466705473981233,0.00378818333559313,0.012004534930600773,-0.00787048965329659,-0.007572678581228299,0.010316834709574384,-0.026677589589424018,-0.10323690351752929,-0.06083890587371217,-0.06219123029105797,0.002360509979208718,0.008791687464276797
11,-0.0060484833801206315,-0.012579216797168447,0.009413836663530871,0.007191687127264021,-0.009448646535933322,-0.003850123702424657,-0.03122879373668747,-0.10216187110290212,-0.06216897539022344,-0.06375506830725704,0.0005444665780162533,0.004964174292358389
12,-0.016044847872708164,-0.02385807869229284,0.005121882896997856,0.019740612046397515,-0.009677567999015318,-0.007536639528326429,-0.03554095773679132,-0.10515789412080302,-0.06585464832228322,-0.06775358602782847,0.0019091693856244027,0.0018254435541493266
13,-0.009909695727201155,-0.025513855152027698,-0.0027382125657394833,0.0229222289892662,-0.004021395975567191,-0.007183383850226658,-0.03857047791475458,-0.10727876953844877,-0.06618339456128103,-0.0715167282923134,0.005775098431970473,-0.0006276710341778791
14,-0.006073755797689874,-0.015958936988160664,-0.0017191880284888918,0.012879463389640147,-0.004237079481837991,-0.006638994808023796,-0.04055551090732944,-0.10589207759602515,-0.06533106769560032,-0.06823876873219989,0.003311938242310901,0.0012440159211524957
15,-0.0013017645156527709,-0.00528069240785814,0.0017457849042347186,0.004680982457732831,-0.0021556202911191913,-0.0011695739950293854,-0.03792163450729649,-0.10274477933961942,-0.06559273501995311,-0.06589233598350308,0.0031267594950785405,0.00555847020172992
16,-0.001767093868775332,-0.0045738594593316695,0.005806476291361875,0.00482104841415194,-0.002945713712831215,-0.0005665337844449302,-0.03732219691306911,-0.10015565511230712,-0.0682724583254791,-0.06803824892322824,-0.00029240361514142055,0.010877387596403665
17,-0.00719846371433807,-0.0013730344829758524,0.005882533060645085,0.0069002786318206645,-0.007216629006635089,-0.0008837775851604224,-0.03773589048932676,-0.09992958150038635,-0.07565446214735635,-0.07204617848050472,8.175759816177186e-05,0.012739675080157824
18,-0.006441918958421508,-0.008870233233913935,0.00202105896868059,0.01585899365109054,-0.00897239835174704,-0.00094024756875093,-0.038282007463763944,-0.10398628837361146,-0.08234304667045061,-0.07054524193603684,-0.0003303881479461007,0.012856708889598764
19,-0.0008507022043224228,-0.00986119841387693,0.004644023390443515,0.009228504141570074,-0.005248097924570803,0.0020461297566496638,-0.037610958247368306,-0.10975780538431487,-0.07977078647064602,-0.06726002707336502,-0.001495472932234329,0.020772153728285545
20,-0.009312974445838718,-0.01444539301987528,0.004997492602143097,0.014348559884655904,-0.0024996539126210934,-0.0010894315597076328,-0.03292614255840677,-0.10846269560460156,-0.06809422918032168,-0.0604712612493415,0.004347182075480731,0.015990070810070256
21,0.002312094552279348,-0.012345156382419214,-0.0018708613751867338,0.008882491193261347,0.003250534751475553,-0.011387834257117556,-0.02853070373957592,-0.09306862503768978,-0.05271997337354274,-0.04755218639195491,0.015560199027752263,0.012192797708520296
22,0.0010062199741805071,-0.015407006091564798,-0.00880188446096902,0.009591711805013933,0.009332129336858746,-0.015384173193715808,-0.016978362444397543,-0.06359951838418462,-0.023461699254928282,-0.02635212142244133,0.017183186674157712,0.006712632463667448
23,0.004733660697063301,-0.018243510782960708,-0.023951891122857654,0.006386411725795026,0.019676349169861235,-0.023775059351854942,0.00434132735707838,-0.024036148127866856,0.023422685509151636,0.006193000136976361,0.018782388426279155,-0.003176258257265231
24,0.011828224886063929,-0.03176152625196957,-0.04045694622891136,0.003943300682694422,0.02664798801112689,-0.03636437564022551,0.02197045100450188,0.021482559893292168,0.07819752558931119,0.055904529004720094,0.020527938015074035,-0.027141441688333975
25,0.015725230640492437,-0.048074360355609386,-0.061567099669875947,0.02161077051532343,0.03888465564573481,-0.05289942912904729,0.035161659093461,0.06872512877909351,0.1467950926970506,0.1272349877407766,0.028311465824604504,-0.04191644939220687
26,0.01969517662906405,-0.05759337397943143,-0.0777637460399026,0.020596027257916958,0.0488869492025347,-0.06500616769856217,0.036059215776913185,0.10667776592090117,0.21162619104730382,0.19868710075305027,0.0586268926797826,-0.0458492417665981
27,0.017864791311699546,-0.058166434218910615,-0.0599891080886135,0.026044314087817023,0.04159509636494187,-0.06382179427091639,0.021086588188836568,0.11297431640203434,0.2443557075874001,0.25858222306624423,0.09908745031929755,-0.029489297025462782
28,0.0039348771968998044,-0.052862972097054234,-0.02365226704086583,0.030922524249291063,0.02108839497680911,-0.045055064642674295,0.0005390573878667482,0.05744617320715631,0.20589180845928906,0.3095171716109385,0.16181543598095963,0.018073661485464992
29,-0.006438501055886719,-0.027964968387704327,0.016385793307453572,0.017186540687970382,-0.0009460911499714272,-0.013988454349497671,-0.016529854229734714,-0.0396956547881909,0.12388343468485415,0.3584585039741899,0.24390375623807198,0.08514591349535616
30,0.0005144601995661236,0.024980105296815103,0.050780820845743674,-0.014102135007334466,-0.03442277648660615,0.03493534471201404,-0.04134502690344578,-0.1584529062651484,0.011692300668221793,0.3996902610829166,0.35220257384374687,0.17245187597078462
31,0.008576079046422236,0.09292181752771966,0.08731417432211097,-0.046316028200474646,-0.04089208078169031,0.08733072536188727,-0.06958326483875786,-0.30159743726827415,-0.13426619657147715,0.4273744280297229,0.4700642957970993,0.2733965119985793
32,0.02287480914188173,0.15910939929643406,0.14788825690889468,-0.0955226928710306,-0.06352849428794934,0.1478963192215963,-0.09001839763624417,-0.4782624788972033,-0.32115667628562605,0.4370220327375341,0.5892899273315397,0.3851285213185123
33,0.022175712898536582,0.22872966428167169,0.2158989405028401,-0.12986311301713907,-0.09679586309054988,0.2228105082212214,-0.09271688822040075,-0.6809686761556006,-0.5400712941724648,0.42264737135012587,0.7104505396153911,0.4847837740443481
34,0.024270371071564694,0.2994258637933427,0.2845140351590527,-0.16629299750569973,-0.123433185558564,0.29607329168333535,-0.08558573924986927,-0.9021864339931187,-0.7692847327888306,0.3992413914648151,0.8460055122231418,0.60846050152136
35,0.043095079267494826,0.36144609404049766,0.3454011809508963,-0.2051791259495907,-0.146667164000147,0.350874302354457,-0.0975212409426174,-1.1528516818562626,-1.0151233369765404,0.38297635924778906,0.9924414516298357,0.75740245622245
36,0.05593486259753017,0.44076427791230094,0.3934608646740361,-0.24706194692076006,-0.16841279929552827,0.4241959975163214,-0.18294214338627574,-1.4782359866996593,-1.3041791802054254,0.3574738443818767,1.1698534558751512,0.9313814649220026
37,0.10023052105386993,0.5162521550257604,0.4380524396263342,-0.3030679977273565,-0.17983107596759507,0.4795092482904845,-0.3570191237662554,-1.851130606627252,-1.6036715823306849,0.34836323425148175,1.4015846018212057,1.1506140191786303
38,0.11841753408877512,0.5994493146474,0.4602927235615803,-0.3495290295743284,-0.17163367091462217,0.5245165949041211,-0.6053501575137341,-2.225484119444189,-1.8913620489999787,0.36761283141560974,1.6747665780714063,1.4119918899135002
39,0.17089744857868797,0.6559290543597086,0.47853836336182787,-0.415244377280286,-0.16016213773487492,0.562247193002847,-0.8829599329297659,-2.5661550878134367,-2.1557907568823365,0.3955117628261212,1.9710671832482003,1.6951390779180109
40,0.23051440401862805,0.7037499637834719,0.4799679703787002,-0.46357299656182116,-0.13212854892225057,0.5940753579575421,-1.152197790396484,-2.8524283199046985,-2.3823596651145005,0.42584794062434816,2.278593333481422,1.983855662877342
41,0.2926883447561458,0.7206196644386669,0.447532152170821,-0.4991548096768485,-0.07855332961385231,0.5861684319451372,-1.3836554439957078,-3.077347357991268,-2.5565395267893525,0.4465708710413554,2.5872555252086813,2.2645276135316315
42,0.3703278474763317,0.73111161398052,0.3737451561331383,-0.5528156915020217,-0.010398052181556556,0.5565367649279154,-1.605929350035075,-3.2561072139965566,-2.7044902264250124,0.4154384754761922,2.8681359258941623,2.5311661424709255
43,0.4575121594558777,0.7383022421996934,0.27893909578738607,-0.6064958436829595,0.08502274563521203,0.5092714084208303,-1.8505051794765683,-3.411554677547532,-2.9050501032771967,0.29100726996565873,3.0885637423815626,2.793290871908968
44,0.5241418271436049,0.7334266504770711,0.18813537952891618,-0.6369916608664785,0.16680147511056298,0.4580529084993528,-2.073847726304226,-3.5629250809929527,-3.109116550403538,0.062284827785582475,3.2727268806741665,3.01573175761407
45,0.5461248844345018,0.7068991882449226,0.13564353117572706,-0.6249788497588125,0.2079068918123236,0.4192256735036896,-2.2789775675410917,-3.706922531227424,-3.314080677023873,-0.2515767116608531,3.3254722586243686,3.1584046722887678
46,0.5287525607455168,0.6842030683184102,0.11599477015663553,-0.595913023612042,0.2086075549335753,0.4021968624889153,-2.437835301394126,-3.858155732879853,-3.510794616197651,-0.629776603606347,3.320930183612894,3.26223686859134
47,0.4746547594030913,0.6498260571811931,0.12673756211637488,-0.5535633295480376,0.16996743783153428,0.40085003958680826,-2.5301035193248222,-3.9618326055504776,-3.6668388716888076,-0.9970037062721966,3.2690397281647297,3.3519827460595586
48,0.40754396622368205,0.6136242307803434,0.17555488752749077,-0.4947382424983463,0.10097099245804511,0.3949548519864126,-2.5531943206699825,-3.979434640573669,-3.7528742499889987,-1.3300142777094293,3.168190456355779,3.3703926746743056
49,0.3216637518410122,0.5699325621246334,0.24614820802117848,-0.4388247004817393,0.02894346939934831,0.4031484601953751,-2.535337498038969,-3.9527771134085787,-3.752363939054457,-1.6242219462271161,2.974241541136615,3.289043189190969
50,0.25030897425640497,0.5513467641819967,0.3124067604275803,-0.39554142887342714,-0.033004640847295444,0.42733473569751557,-2.4799417672992057,-3.8307440305949316,-3.6714495066680017,-1.8623495805999144,2.6530407121771957,3.105906118770747
51,0.1824024905734039,0.533334974572731,0.36557501546340176,-0.3530078422556122,-0.10116600563412295,0.4421276231440976,-2.387930449424833,-3.6580040216676952,-3.5464965292903234,-2.1068999093762573,2.139461470432785,2.7521270115866274
52,0.0754130774373876,0.5104381900203339,0.40141892244754873,-0.28602113423757747,-0.16198597761084135,0.44854965858670093,-2.270424216280766,-3.4489005677547073,-3.3877374596655256,-2.3625851162003526,1.384804259046449,2.2023397768429565
53,0.02741188963656816,0.46204098628985885,0.42108594942303956,-0.2385808920143391,-0.19024638818911088,0.44099016890075704,-2.1106236786300094,-3.185541343215246,-3.1466357375312963,-2.495569807909848,0.6280743150506816,1.6497385956628419
54,0.019942306386937496,0.39128343053315867,0.3735638959569342,-0.20116684260899295,-0.17994809768690923,0.3968580348624682,-1.9075530463046102,-2.8541302432922837,-2.8127217792898023,-2.463462698026645,0.0026142749048696443,1.2199109970789666
55,0.012964904911562472,0.30824222167597803,0.2919865779309472,-0.1684685530668416,-0.13400895491515138,0.30134097640389657,-1.6530868869631528,-2.4590136617232012,-2.44583889812104,-2.288012369123094,-0.22580915899493864,0.9736931821577917
56,0.016927325148832426,0.2310716938731397,0.2105704549802112,-0.11691603206153653,-0.08684642430597725,0.21775520212966434,-1.3733891513484464,-2.0544295241445134,-2.044683538324378,-1.9837128345555812,-0.23976608165448438,0.8529719880881714
57,0.01578095302708664,0.15173550956759302,0.14383533847811017,-0.0703298627805932,-0.06492943602376912,0.16251006391241052,-1.1061871815626276,-1.6720728925786865,-1.643708436863315,-1.6339122202640126,-0.1777557553924715,0.7614971947839874
58,-0.018018396537446746,0.09108999617196666,0.09537903982937579,-0.035544379333399934,-0.05576492098426466,0.10273156531464639,-0.886816924324733,-1.340063996477392,-1.2896653491899674,-1.3273372955674383,-0.1334947764072798,0.6318141899396342
59,-0.032867257904577896,0.015711971796768823,0.06231189260284965,0.01798472425603569,-0.048840858773644476,0.04564115177161418,-0.7190535885146173,-1.0956043751350721,-1.0448580499013511,-1.1306336985248986,-0.16550492366540723,0.45464800783644466
60,-0.05304383129780726,-0.02210618661543902,0.04686220817363249,0.04286422511562296,-0.047348816149828596,0.011547908694127683,-0.5701665003144265,-0.880598707661077,-0.8350220829548705,-0.9426050129933342,-0.19191471020376635,0.2777655607485276
61,-0.05530232498343031,-0.03165059981845115,0.03740967080667894,0.03954581548834593,-0.049313751408829286,0.000708890665931744,-0.4277370637449522,-0.6606595245995934,-0.6142922313917674,-0.729278732211706,-0.1753931769245029,0.1454804552478181
62,-0.06068332130469624,-0.032037876807053826,0.029718056409526024,0.03963465262023075,-0.04651408571145994,-0.005299290179739947,-0.2990454587403253,-0.442075716956058,-0.39821638245302066,-0.5213560331505223,-0.13719885260495293,0.04460726343413895
63,-0.05240725263636009,-0.045406833334274144,0.02816721802405429,0.03753147349853301,-0.03883096399779751,-0.013238194302953685,-0.1945519124798672,-0.2635012030227598,-0.21497841379990845,-0.33041353675702534,-0.08976126025071726,-0.0018043664875588908
64,-0.05070705385678446,-0.04989489746864,0.0207299515794413,0.04825332026644595,-0.03227760382595932,-0.018786362681278444,-0.09834790134494373,-0.13220399035620398,-0.09009035337623647,-0.18171584695343768,-0.060337377933225037,-0.02411758181700646
65,-0.05640510338144649,-0.032398082410554176,0.026433302455485874,0.04710846050481787,-0.04334733298429419,-0.0035134678985554862,-0.03714296433464756,-0.05968588040635123,-0.03355246220025935,-0.10473966204697349,-0.03677999144543631,-0.03379026300020309
66,-0.0496314505695478,-0.015329660831036887,0.03982318779956239,0.03904748132917431,-0.04531422452875563,0.011529579944294512,-0.002610840598437636,-0.030176996940237982,-0.0058015674867842384,-0.07296505679040788,-0.04667469941338398,-0.04555647546295985
67,-0.045610899052774795,-0.0030582100519811646,0.046765616076356056,0.024999864699842125,-0.044629936604477234,0.0194184665682829,0.01552977245760788,-0.013524647228046013,0.006378923634740116,-0.06861777320262222,-0.059312374668749834,-0.06805008519680447
68,-0.03735515552220642,-0.0005530586726446227,0.03649410163621741,0.016726067138095584,-0.04308764962733892,0.012898960766796778,0.030809873111697583,0.0033673128244071718,0.024122343743566962,-0.06724875637161604,-0.06250237158935551,-0.07985734236780528
69,-0.03565325271430071,-0.010020935709472312,0.019750822317344305,0.027562228227211365,-0.028182680011073154,0.0026050919307413455,0.03816696955026938,0.0273818851818649,0.0453070563787126,-0.0629677173243389,-0.061901083496412684,-0.07749158108596328
70,-0.029086325935461305,-0.025241432240726204,0.0045396822080469145,0.036888059155059764,-0.012178081430983274,-0.007810048831658721,0.04124635356136616,0.04761287370286632,0.06236356277942515,-0.05691283550123487,-0.0619291463469126,-0.07224490903637398
71,-0.028258951869212613,-0.0326167661475824,-0.0037908918278750092,0.03755174252253821,-0.009997481541587309,-0.01533136048358966,0.04113487395635476,0.05330379609212328,0.07160096531155546,-0.04953294529977852,-0.06218475426672408,-0.07325728157385447
72,-0.02702552327788024,-0.0321101949868847,-0.00150874195458282,0.028281804906006822,-0.013472877940538983,-0.017313169169687774,0.03594153435164346,0.048850135083254836,0.07337098335427257,-0.04296340613355612,-0.06362534918835475,-0.07051171290148851
73,-0.018370420198974023,-0.025673075206940385,0.0033646173912135237,0.02304367005276809,-0.013335089259494533,-0.01681362064320271,0.029737970432618895,0.04535588933118837,0.07071710657819073,-0.034331949644962445,-0.06690420342404138,-0.06781891753265384
74,-0.017478676291625698,-0.02476465761646434,0.005561489378336264,0.02332942250019446,-0.00958653682645427,-0.013816841887392947,0.030764899216635035,0.04847716365366802,0.0712475331865882,-0.021559533933426887,-0.07305807834150055,-0.06503168004591174
75,-0.023263526575595942,-0.022419709665778394,0.0046780683933126295,0.02089264353274914,-0.01218235781790938,-0.008308656402709367,0.03097449848842901,0.05607788664151529,0.07309130183689294,-0.00940251420047188,-0.07587837216877158,-0.07110248599457315
76,-0.019776549805988707,-0.018132112535619443,0.006142906174212676,0.0174340531558772,-0.012471435244429813,-0.005764004974928027,0.033011757064469335,0.06540640225913867,0.07259980497028296,-0.001354150614078755,-0.07662464609400543,-0.08262709878978647
77,-0.010018394719397875,-0.017087611489693566,0.004991120121938506,0.014959699510298161,-0.009617874248424287,-0.01227570333902701,0.0367067831890112,0.07646975238980472,0.07624021509815458,0.0014583351702118844,-0.07689894313307935,-0.09163207876338429
78,-0.000747544792253885,-0.023151664717951388,0.001611591806533176,0.013708290412712501,0.00022644868680624314,-0.013977792181419441,0.04104563966718762,0.08736214794789894,0.08859346444933024,0.0027088967443670425,-0.07179003681484987,-0.0991142864049773
79,0.00478111148785363,-0.02771563128037964,-0.008558644665531148,0.012013169319724445,0.011299119735767688,-0.01991587708830527,0.05151301493578697,0.09493725997958613,0.09766016187244336,0.005039548157629803,-0.06506176823619894,-0.10023374520121388
80,0.00568951563628965,-0.03094714241756314,-0.021290179166281356,0.011961507537360524,0.0174423508846699,-0.024124661552655816,0.056158786156916385,0.09997127578073509,0.10673159140007436,0.008488847646383173,-0.06326122588435876,-0.09612347513428786
81,0.009371226943922794,-0.029418722412506162,-0.026820429571818925,0.011852002870395568,0.02168365450449769,-0.02754236338258196,0.05481964702168725,0.10434371735902812,0.11218095533456396,0.012989609794651292,-0.06631968039226438,-0.0873883410692998
82,0.01228180732501136,-0.024198795295607534,-0.02226510127353171,0.007192849369764741,0.021156291819302224,-0.025881039765543748,0.047844124717880174,0.10621095404091194,0.10737204152952118,0.016850939090354122,-0.06967914457233997,-0.08197734662175428
83,0.012652400851248828,-0.017498947559155646,-0.016435124047880483,0.0028376857189234776,0.014769043904164983,-0.021505587423773842,0.040763589704283926,0.10512468558196336,0.09897331001795967,0.017326904610642083,-0.07198203174176704,-0.07868466445493949
84,0.0035154326624958886,-0.013192077632267287,-0.011179969682257186,0.004310703558407429,0.001231672632394958,-0.015976503116455747,0.038014163102128185,0.10238855602922986,0.09204827739117066,0.015949463013599133,-0.07247439157707118,-0.07822412523771781
85,-0.009844370843194405,-0.012157428049233542,-0.004233670543188434,0.014141838429350625,-0.004779388848958069,-0.01097662153292275,0.039435754179273544,0.10092348808306564,0.09266473457211198,0.01569536610509522,-0.0731161358235229,-0.08094966924005723
86,-0.012819812695509188,-0.019953893211950173,0.0028161973587273667,0.024543379469467243,-0.005029983472578195,-0.008741179614517022,0.04298827450365031,0.10017716724074047,0.09507724571058547,0.014016349887120853,-0.07452516788891864,-0.08375103011925193
87,-0.012392568681604934,-0.021999002677964903,-0.002685963787831494,0.020162346522005766,-0.001541098513378847,-0.013633928281766749,0.04757690191793444,0.0999159825062676,0.10033983723585191,0.008028269166321478,-0.0737801487564526,-0.08728158965614417
88,-0.01231939992865138,-0.03098592625099021,-0.007667942740109283,0.02469180592754772,0.0010598653209555583,-0.01998174973833539,0.05534171228904829,0.10156906953348638,0.10614256724020052,0.0029418984474625584,-0.06969627091570901,-0.09127556976599477
89,-0.004532974593299188,-0.033074188965523894,-0.009366863610518087,0.021889856346926282,0.0060735553359761675,-0.0225707206911823,0.06201916656643802,0.10359387148630064,0.10853133259658772,3.43362483569698e-05,-0.06390490173934654,-0.09356706766590958
90,-0.0028888226283409254,-0.03158293138073558,-0.010727268474216432,0.02062707243012299,0.008657977315788911,-0.024075978863772347,0.06260791341748091,0.10289248973877332,0.11024932515742875,-0.0010760746449402295,-0.06393566967524561,-0.09265067491250108
91,-0.006664589406111726,-0.029780503757654342,-0.01355143936698864,0.020938419771024872,0.006719700484118678,-0.022186204283278263,0.059759919473579295,0.10048681640311982,0.10982894352400595,-0.0018404629533904926,-0.0653848000859857,-0.08994248666341216
92,-0.0028932410629095833,-0.02894462369872619,-0.016460717229146327,0.016451430185188406,0.00535789762639284,-0.020733654175047283,0.05435834691282178,0.09943930692233172,0.11033431987239019,-0.00020988696503179,-0.06749108077325086,-0.08818928792122974
93,-0.0009164065872025087,-0.027030552808771008,-0.01896018197177834,0.015672606093954548,0.0066903274581324315,-0.02240116577524212,0.04720370569479733,0.10051939963358947,0.11161268094415819,0.004650048093845619,-0.07097172828205388,-0.0878836115882596
94,0.0014607650135731176,-0.027055688669239103,-0.01872041213055895,0.017167161506862347,0.009085510249155819,-0.024154248751048095,0.04251579069984142,0.10318513104814361,0.11098413734040269,0.008399017869645236,-0.07358400376141276,-0.08833496671011819
95,-0.0030591110289859575,-0.027255864402220685,-0.01267688282937672,0.017776358744905393,0.00877782695445008,-0.020634706451030497,0.04367713726663394,0.10655976659618782,0.10925815926171961,0.007216683475341618,-0.0775213119539553,-0.0890052426266229
96,-0.005246605783096206,-0.026766158297096616,-0.002871221898115034,0.01602738138258143,0.004637316399643364,-0.010421336596566019,0.0535329326859785,0.1090372041619799,0.10685773251240681,0.0038251891689038975,-0.07919512006855532,-0.09282132176791542
97,-0.0065013172045409705,-0.029408897894994283,0.0006289926449494568,0.022300204428900287,0.005431151020186786,-0.011727154208573572,0.059440739580068416,0.10956870484781531,0.10553190750398148,0.002346519070133623,-0.07800613487882581,-0.09895414046735249
98,0.0015769189129642555,-0.03326710977473858,-0.00442505325996825,0.019051492516691325,0.00910605100476338,-0.018102318464706873,0.06559790260711504,0.10913788422083534,0.10671281110616715,0.0016647184864512603,-0.07613995295262069,-0.10007039465403084
99,0.008051458447479655,-0.02361940785076743,-0.007274754962743161,0.010644470788469928,0.012776457664912507,-0.018072233495429715,0.06470641371924583,0.11054175876684541,0.11045187343688495,-0.0007208784470329015,-0.07508520071027311,-0.0973989078676029
100,0.009670288610258593,-0.010204777803970177,-0.008393434912398464,0.004076750243820256,0.01520708648733271,-0.01303277490800216,0.05895196671960831,0.11460773294048923,0.11321596907940926,-0.002994806663022133,-0.07505813556886538,-0.09576207649755478
101,0.001686586043972405,-0.010743914475346512,-0.012995141163618013,0.0021839323660874255,0.012034755062132233,-0.01233280106819986,0.05400953382556778,0.11668121299844986,0.11337155617513034,-0.00177374165658261,-0.076776621661747,-0.09521153370045085
102,0.0017618824649742694,-0.018678033688316175,-0.02073075032142025,0.012155355174810121,0.015336046199466043,-0.01589873575790928,0.05204163215036274,0.11249004324208015,0.11478451992959443,0.002464027517827889,-0.08061417130559534,-0.09757533361998756
103,0.009889914717869798,-0.017587949521037264,-0.02174516474930886,0.006142245410870165,0.02114889489266323,-0.022038446716367996,0.05244283430674032,0.10561397429554661,0.11536646847381425,0.006077822870544432,-0.08456263054461784,-0.09984944910949184
104,0.010428062913803273,-0.013453552991492968,-0.018696743903990554,-0.0008265025768439856,0.017222658860967188,-0.020741662489252265,0.05185491792646452,0.10190079705837457,0.10798478753376015,0.006629488034090438,-0.08724239309220261,-0.1011939738901445
105,-3.180884594652933e-05,-0.028193701385226,-0.013528003921978265,0.015580996136121922,0.011803858929290345,-0.019596277107564154,0.05114533286190974,0.10145050589905061,0.10207994310313302,0.005366020985142179,-0.08822108015879927,-0.09942748495443834
106,-0.0017396923486100706,-0.029450052797874583,-0.010305140221439277,0.01793491737952842,0.008287323250725048,-0.015865181094560653,0.04907894932461761,0.1026058014463338,0.10301829652039651,0.005577133435930481,-0.08645313376054316,-0.09904423349986742
107,0.005750658668661632,-0.018572126856631684,-0.008877560538525332,0.010001627763925294,0.009627754308661295,-0.012414908643952838,0.052742824467449906,0.10694797062778535,0.10963585497136155,0.007669283119720639,-0.08173726931138262,-0.10321623482399823
108,0.00719582935169392,-0.009456566611901359,-0.008427061716155242,0.008191096877075359,0.010715132718940468,-0.014588614563868486,0.06196491266273878,0.11585164448346139,0.11877032960194697,0.010512292119454644,-0.07630403711419735,-0.10639654401585688
109,0.009476317524328601,-0.015382126666280142,-0.007338782595141532,0.005450083038367559,0.012953741284355058,-0.0140181271335083,0.06587749826872515,0.1275968406884853,0.124802464219102,0.009010305777351294,-0.07769189190219832,-0.10665224343519167
110,0.01205406892215584,-0.021020567900620735,-0.007379182710982604,0.004492393181525996,0.014565219612537672,-0.014007661129516513,0.06526515657161336,0.13862889789126262,0.1259268565332454,0.006617985467478587,-0.07766566680572498,-0.1067625930718674
111,0.013183086450246868,-0.0198536565823128,-0.013381232651354661,0.009844088330892516,0.016534096787229953,-0.013271993520618367,0.06482966414109392,0.14478431370232572,0.13179654562363027,0.004925946366493985,-0.0743536240410419,-0.10680954141605213
112,0.01656723763410295,-0.022249751905949564,-0.015508177472595187,0.0014988867701793487,0.019343321572006245,-0.015638574459770693,0.06452055193602647,0.1444410984567952,0.13667184466828536,0.0036514489729552735,-0.07361140109818277,-0.11049428987400031
113,0.01634333554496558,-0.016668946842015947,-0.017620871514911998,0.001543747547638084,0.02084800448663269,-0.019268173478341154,0.06943737411696105,0.14165228164012908,0.13593771253001485,0.005108133374060606,-0.07585159166915502,-0.1135350763545282
114,0.021763557991506054,-0.016004457974282054,-0.018258882731926517,-0.0017483617370121947,0.023777314921998534,-0.017815038893005102,0.07141071791878437,0.14170732468889036,0.13399498299187365,0.010368291189838084,-0.07862899588465776,-0.11318708777659979
115,0.02760295348332551,-0.007468509883035476,-0.0186826377081122,-0.009411541066319754,0.026829264491505155,-0.013767754206533093,0.06883768243133606,0.14434780665500416,0.13381086501064135,0.016514439545083054,-0.08272172462049075,-0.10870616829141089
116,0.0295029504011914,-0.004767164994750127,-0.018469858421132645,-0.010274976570197969,0.026039611576112412,-0.013596534973128814,0.06957989305674665,0.1453976305964901,0.1355066509724577,0.019907460876447153,-0.08782477766658893,-0.10505437231599227
117,0.02253768031009239,-0.01196227248831009,-0.020658636881760922,-0.005305981816769089,0.021802612326737175,-0.019660010556948562,0.07036553522961117,0.14260674026225562,0.1357091583314505,0.019943484186543334,-0.09453864260868261,-0.1079620847635405
118,0.013194149079783588,-0.02328686361389813,-0.024067174968746184,0.004161314829619853,0.01765995130822881,-0.024195191543276755,0.0721832000965398,0.13700138808422044,0.13874816063036516,0.01673002647131369,-0.10098451375395544,-0.1191751179145659
119,0.0021759016566353434,-0.02524863357321802,-0.02399914735466249,0.013065008508397497,0.012525387712655699,-0.02520718305369834,0.07367543805806821,0.13176526155863566,0.14053280654099587,0.015921837550180045,-0.10532289132593839,-0.12935733259017593
120,0.002732131781933907,-0.030808958745200447,-0.021129438800080648,0.016086429975434878,0.013232961011578717,-0.02378223588391124,0.06866958397290125,0.13075970948889132,0.1405603284105166,0.014180639228215983,-0.10944870112583428,-0.1386824207834419
121,0.0014392154671353337,-0.03482505353260376,-0.02092310172475798,0.01916560558603991,0.014874772115474753,-0.029651810568849767,0.0673513230560482,0.13520758005974168,0.13914553704858532,0.013331572610403776,-0.11517942824574111,-0.14293953511536395
122,0.0006002646742112594,-0.03095028539825149,-0.018827653864235967,0.02186569156734129,0.010906681473990192,-0.030261000600795354,0.06356575982324547,0.1431430857615872,0.14034333045572558,0.013217912813495464,-0.12027105009360568,-0.14761447074220035
123,-6.793972555405904e-05,-0.03063462400009856,-0.01709861014832406,0.022418008696194494,0.010132986438968133,-0.023721058493201996,0.06641431865361971,0.15210900943631286,0.14217886177437836,0.013144821185447277,-0.12404888520417212,-0.15258343132282248
124,-0.0030344099917941313,-0.028545221731367962,-0.014072918260958266,0.02159592847151333,0.00472067060515922,-0.019769858804440384,0.07015330451297712,0.15875288870708815,0.14530946353771018,0.014730851202183926,-0.12485709175265741,-0.153086507693207
125,-0.004723844902541682,-0.03362329883282894,-0.01705382079979793,0.022479257755000745,0.005144611522720768,-0.02224169128335413,0.07376346440511716,0.1601751067331867,0.15186658992889537,0.01695099978107855,-0.12517209381954686,-0.15270186747583328
126,0.0023177205992954203,-0.0314792601146441,-0.016484282627940678,0.016663685813510663,0.010434022960644603,-0.023952532519432822,0.07931516688507649,0.15968318413703192,0.16258350370061653,0.019590945758254617,-0.1242601178231173,-0.15097164257090956
127,0.006084378989168704,-0.02301610645893231,-0.01800595590608353,0.01169876712898044,0.015382789737604761,-0.021256198757220648,0.08373143456859357,0.16479415516094453,0.17223111778348474,0.021658759091301084,-0.11882912217345501,-0.148091974654344
128,0.012823991676788438,-0.012535254332474384,-0.017778375306310015,0.0025358221399360923,0.01967358562381375,-0.012798349289031178,0.08791935806809086,0.17866849781223607,0.1794632133803261,0.022106027678495524,-0.11635113124006874,-0.14651449094354194
129,0.01825486080193904,-0.018254430049395764,-0.01705013392457296,0.005741670886490188,0.018259339372360083,-0.0150535192396907,0.09453005131847181,0.19785863034399406,0.18808727023818847,0.020708808329848345,-0.11510662232981585,-0.1494966929312878
130,0.01729996743384165,-0.02706127683810683,-0.019250278242706358,0.007896827699754722,0.025159617590822993,-0.021721240257172224,0.09938978430048434,0.21541732790095935,0.19498201333961068,0.020549333674224464,-0.11832825916290284,-0.1557159956634323
131,0.016636942324230054,-0.024748254987800852,-0.024178898329217623,0.006876202580475476,0.026538483123241294,-0.0283393146561984,0.10134193913780846,0.22536891371570628,0.2013973328340929,0.0239210648456627,-0.12326574395167388,-0.1597289034119514
132,0.018388911016187844,-0.017502248270157103,-0.025339504883999858,0.0006107337073366012,0.02249928506183824,-0.023049002269749312,0.09749952031564198,0.22812641984017742,0.20864649698462376,0.0287640105947531,-0.12980029431852932,-0.1594367659921536
133,0.009873488694914587,-0.01963784164870515,-0.019787637648858377,0.001862299891803169,0.018525698518184898,-0.021990184293545274,0.09687422284999746,0.23013243936717961,0.21164476336655205,0.03370575623560415,-0.1377166013295878,-0.1625602633707954
134,0.0010990749626594515,-0.020259530289123286,-0.016011441299489563,0.004934926190280081,0.010935780807127234,-0.020939501939475715,0.09161035982108519,0.2357163801425753,0.21410569187900344,0.04091009089894622,-0.14488095146339058,-0.16709792090776135
135,-0.000551592253984115,-0.020894101494012347,-0.019110488512105714,0.0067325738536685754,0.013130104310778589,-0.026861977908876906,0.09363104935922954,0.23935547284478922,0.21589127404526673,0.050238864425467225,-0.14994525872238426,-0.16990627777259545
136,0.0032685187502895577,-0.02402248446418183,-0.022353750896324825,0.008937568416226484,0.01637350937911178,-0.025126519142801763,0.0967277808446371,0.23481427458839504,0.22436545934087035,0.056929239145997526,-0.15308006425315698,-0.17226177560444422
137,0.003609728182719073,-0.019273926045040975,-0.023359777124220032,0.00833909122009957,0.01716299909560435,-0.02316263159089462,0.09963158928858884,0.23039514952012394,0.23438687962285906,0.057980359328454814,-0.15795060658224033,-0.1783309048993165
138,0.00031571407500983247,-0.025516167618243026,-0.022179801310020893,0.014187472072381031,0.011940226262343862,-0.022485905039981047,0.09886786964581949,0.2298473571866008,0.24385388886899143,0.054955441757677366,-0.16461968777199393,-0.18493118711843465
139,-0.0005303087120196795,-0.028394442300898402,-0.01847247774677264,0.01979759263157695,0.011299705380305851,-0.0198741695963389,0.1009811821281291,0.2355997028811153,0.2547018294366969,0.05044454761865159,-0.16940064171114488,-0.19167903520254687
140,0.0037639823654498387,-0.02536812862687836,-0.017342444888077596,0.018018147902509888,0.015262095781299986,-0.01974537821742102,0.10836648044784684,0.24703230197523535,0.2686784922059341,0.04946235412507109,-0.1721881148885906,-0.1995721835626958
141,0.01070197801550256,-0.017812497532206047,-0.018628736998730307,0.00937439377718578,0.01806234940415389,-0.017347731411643547,0.11539289018602389,0.26019791129014236,0.28258176830399007,0.0521121175681945,-0.17411876409001908,-0.20737025990551491
142,0.0180182672386256,-0.0075640272799959996,-0.01659022021449663,0.007030533210012017,0.020270091054314564,-0.012657719643664522,0.12307813551496,0.2721753182342124,0.295497163366515,0.058498487485314755,-0.1766588971599541,-0.21450829506825994
143,0.02134702132911779,-0.009241765516697125,-0.019663140429753374,0.003978376849122854,0.024552764891189113,-0.01572008072424748,0.12842796854771305,0.28327133894822554,0.3072606698134521,0.06774640322361983,-0.18240200651967095,-0.2153098023877474
144,0.018719184045830332,-0.020946215778256623,-0.019355792220064807,0.003851545723240611,0.024027371669489525,-0.019862844806099924,0.13665585026979532,0.2943571999618645,0.31753025908893434,0.07605252350652754,-0.19021832118451495,-0.21710198104904455
145,0.016558208754790506,-0.028477082976772712,-0.022703387226155898,0.006307275016136347,0.024661615447113767,-0.020443493011789365,0.1372922593542782,0.3076431427967156,0.3268776762166831,0.07993409558792222,-0.19814127186545227,-0.22289030226826984
146,0.020144265721498175,-0.03620714939660083,-0.026018730859723616,0.010786232369440693,0.027066903669379857,-0.023176833527037276,0.13550699869468066,0.3190370155588912,0.33739256516254607,0.07905516822822355,-0.20614551070707446,-0.23427198480875297
147,0.015368366129234695,-0.029745884919017765,-0.028735185909864555,0.007168612286827528,0.024866596271618892,-0.024454660317340386,0.13886858299722774,0.3308304015952127,0.35169239677606334,0.07689846663028051,-0.2083203693404355,-0.2380417857041577
148,0.012348416659839512,-0.020734574072636985,-0.02652633145822747,0.004455100889964498,0.02460882576276621,-0.022518786746670946,0.14344794562250757,0.3449268800385604,0.3686924041523298,0.07854265156848578,-0.20973640114106787,-0.2411963157439202
149,0.010022983290202696,-0.0217501611437544,-0.024163313700565483,0.009379084406808676,0.02190473910401046,-0.022238393677443485,0.1527065251692815,0.360975304584505,0.38555528720822574,0.08350345622635262,-0.2132767658225471,-0.25119066577892224
150,0.0067802885791785955,-0.025486873393269667,-0.0227347493214299,0.010473341392396491,0.018417034629395417,-0.020163242521126456,0.1648018299761127,0.37700666079354944,0.40028129895974707,0.08573599286691959,-0.22207394446906253,-0.26756822461728497
151,0.012348606827269414,-0.029894074121318427,-0.022131369238952047,0.008229580067483921,0.015546820057318878,-0.021993532500976992,0.17502919713454668,0.392876163245014,0.4107409154208895,0.08365467803694823,-0.23748612003347877,-0.28195739047623675
152,0.010745921118466362,-0.028708434449792652,-0.022703018510190458,0.012472887859851328,0.018276848242405844,-0.023114027221868623,0.18505800749350193,0.410243595287299,0.4227656327051576,0.0822392606108072,-0.2507460332869469,-0.2897106120302245
153,0.0008477027348288051,-0.025574745060136052,-0.025920828566615352,0.018596045438751325,0.01619363133786291,-0.026102798960513998,0.19350211536620243,0.42830252382103756,0.4408951529503012,0.08581450212863542,-0.25760416542082043,-0.2959169423149282
154,-0.0032245773791492807,-0.02658507161383488,-0.025026556679828373,0.02031289714517201,0.01413650422278274,-0.026687045901706077,0.19848782596726916,0.44453264723497876,0.45756751462909845,0.09433773490030652,-0.26078723028734496,-0.30310627628172726
155,0.00019524579072611493,-0.028607592009900616,-0.023329635951382634,0.017889118381902717,0.014062865538220462,-0.02235870513040006,0.20166600765991147,0.45932440591408713,0.47017119692693715,0.10399311735889658,-0.2648413335637636,-0.3096832929440143
156,0.0018073875155859365,-0.02601584050085038,-0.018908324278707006,0.013252343376490148,0.012240633632359816,-0.018605418675464853,0.2132755093048278,0.4751513344461588,0.47977129386321876,0.11101646975083782,-0.27271924433038836,-0.3111105200446769
157,-0.0005680755625412579,-0.023769646710946772,-0.015291202205439836,0.015202726903838143,0.011471326670152611,-0.015085893642825622,0.22016309792923103,0.49262307558537366,0.4909213287503924,0.11507464613066921,-0.27860105111904454,-0.3158147997621434
158,0.002363834095513718,-0.02516774821214819,-0.011108880670620973,0.01476639164545459,0.012910898084951926,-0.014484622708075687,0.2291457192316652,0.5105511857807045,0.5050807528075442,0.11614660025075185,-0.28436324709703004,-0.3207195823297705
159,0.003081462367519313,-0.022800559027176176,-0.010424577601068737,0.013193944878791684,0.013372121045624016,-0.01584501654292324,0.23216115488273828,0.5277644706319117,0.5191024572849676,0.11391493949732918,-0.2838564167636276,-0.3231775439069139
160,0.00012441452243842736,-0.018808251136545842,-0.007554893528656799,0.010708435014309112,0.00968375927089066,-0.013992775588481585,0.23551861962519965,0.542874019792839,0.5241322133540672,0.1129470940505077,-0.2806997444781192,-0.3267923025257067
161,-0.0015179683609802541,-0.011411307338601278,-0.0036259692149951533,0.008034416170548099,0.006978266614950543,-0.007175184854400975,0.2490123176327927,0.5545764369701339,0.5263183430123421,0.11433131755889556,-0.2842750033033392,-0.3312040828445548
162,-0.001979995172396448,-0.009042300472624595,0.0017793513713640872,0.008250389987628812,0.003866983702603222,-0.0027729160960495644,0.2605537628089264,0.5636787900194433,0.5296021640857229,0.11489561698056047,-0.28686283509709903,-0.33378042266982233
163,-0.007102756155965024,-0.018274204761030192,0.0045153060595607905,0.018748018529894984,0.0003584394309594464,-0.00515212250962226,0.2695409574775143,0.5730382716161617,0.5353589144170624,0.11400890170250996,-0.2887272714211134,-0.3365506271403919
164,-0.02124625039249421,-0.03619350475692191,0.005212620428886615,0.03027041374993529,-0.008680629449908344,-0.015557531607585523,0.2699754012734617,0.5840677476191993,0.5408301473657877,0.11091469977688626,-0.29051632262665117,-0.33995153973601333
165,-0.03914500039719458,-0.042364540183366536,0.0047982081815719155,0.037136520733182785,-0.02186420291227268,-0.016105043086945076,0.2753008221885521,0.5947300170293244,0.5509416897793854,0.10894570372841896,-0.28933126562762507,-0.34160257487885004
166,-0.03714850532904509,-0.03736800758463001,0.007632700723663614,0.03440331491597655,-0.022515843850326192,-0.013816288234544546,0.2829534703111112,0.601315890533286,0.5644033557458772,0.11253901776173146,-0.2861354460321308,-0.34191029246904864
167,-0.03368852025797285,-0.03347094723013745,0.014052517280010595,0.030707766652570443,-0.020865969805586464,-0.009694835129745422,0.28948411628035964,0.6068095484343385,0.5726704621790658,0.11725954657143482,-0.28222637894918357,-0.34105368924629065
168,-0.032070420613920264,-0.030929902109381513,0.018127487435087082,0.0308200308751248,-0.021140135034438786,-0.010118292684286677,0.2921012991468709,0.6166150528265051,0.5741685545881183,0.12079173758362778,-0.27831613848541703,-0.3365318488059278
169,-0.0263530877440432,-0.03176938272444197,0.014443292448123857,0.028837175457075658,-0.02136437892224964,-0.012765040144079236,0.29236953095939594,0.6205408593392077,0.5735064730920926,0.12279929395389087,-0.2724765458604378,-0.337052594180819
170,-0.027983925628153647,-0.03396844228428125,0.012468445824472891,0.03038317008240851,-0.01831411859644247,-0.011202342816438816,0.29086041340692803,0.6139674926269862,0.5706608262434248,0.12354098337045695,-0.2697962655477356,-0.33169084515100333
171,-0.03817761244153468,-0.03588396982552173,0.013513054343397201,0.03554597021652654,-0.0189534264677213,-0.011263393364629004,0.2884502214083966,0.6071324008862407,0.5672998342457365,0.12496164259539619,-0.26457100283997814,-0.3208960498772244
172,-0.035063095225016536,-0.030754689827291452,0.019140036590763073,0.034179050734482304,-0.02346829012828658,-0.008060400815932019,0.28911239208449435,0.6055765001127429,0.5620015975576028,0.1284133597999045,-0.2538416031764865,-0.31413085670573926
173,-0.035366891341909956,-0.03157750213921336,0.028007223896015197,0.03386162302721117,-0.025483308448766253,0.0020011140775420717,0.29124558558410873,0.6118917181508594,0.5582495727277181,0.13475439325187494,-0.24379317911722684,-0.3043133269061622
174,-0.03554408956546267,-0.02426571206112465,0.03728361537027577,0.032020267107830735,-0.030118690493915225,0.007787816315181013,0.28834171808231357,0.6192978544263732,0.5577377855906365,0.1420136398287956,-0.23449431605101703,-0.2955846376186688
175,-0.036388406194871444,-0.015980603386052925,0.040924288375160156,0.026708179781162644,-0.03501372255591921,0.011228358415580258,0.2882140665353217,0.6214822663720798,0.557670322946688,0.14600548031737579,-0.223821174950704,-0.2832783042551402
176,-0.040873640361833524,-0.008086848235289424,0.04002852703924617,0.02634744003905514,-0.03646253764708045,0.015360047195209607,0.2853152320160609,0.619009619651857,0.5544559402854767,0.14591346618191026,-0.20879390102036097,-0.269119309914814
177,-0.041892623731844617,-0.013597706968401135,0.0471193342833188,0.03264702783972287,-0.03451506494119005,0.02426383710161537,0.28189083874771903,0.6125557623535824,0.548515831763609,0.14854966240385947,-0.19284603043766932,-0.2503197961084056
178,-0.04209877272254052,-0.0058735137362664926,0.05617282280154136,0.027698325190844312,-0.039336302336517186,0.034372122188052634,0.2808764914486719,0.6007194528787987,0.5422540294117414,0.1542866815339744,-0.1748528156182488,-0.23317258662974188
179,-0.03765445079224926,0.007764962979807222,0.059385825745047686,0.016871943801511552,-0.04011784286243429,0.03859797771354424,0.27434173435066433,0.5861130404128656,0.5337320859549766,0.15973168316997755,-0.1583596903664529,-0.21340965988957447
180,-0.035040494031766824,0.010954108556036629,0.0619447536165349,0.013041838369393727,-0.040187093398160616,0.03908221216377862,0.26723844187712953,0.5696967589912841,0.5247905665555301,0.1636060190600758,-0.14164504664552544,-0.1932233478468459
181,-0.038643209149670225,0.007057707580752318,0.06707538442147612,0.018068163120669646,-0.04718952682142171,0.043140885696160425,0.2601940442303218,0.5508192534460645,0.5107375247949528,0.1660322656415108,-0.123932067658893,-0.1767381949572389
182,-0.04518416698575212,0.013798970743773701,0.0701964309227487,0.01802645357742868,-0.054199964843446954,0.04452579812966413,0.25245437395022685,0.5259721304759494,0.49514913499975877,0.16752999402320173,-0.10637641454078686,-0.15989592511447995
183,-0.038606165915724855,0.016348167875322613,0.0735130228802345,0.015663637719985322,-0.05394671296908354,0.05003853557449897,0.24390744058708885,0.5064478605174083,0.47909971275648516,0.16803526063567326,-0.0882205273252446,-0.13816828352479393
184,-0.03361501706848416,0.021517708484084394,0.07349143998481207,0.010300142657482077,-0.050131538220076065,0.05061544160016625,0.23537828327603108,0.48918919685103956,0.4606951891925884,0.16805607416739113,-0.06778857403315502,-0.11691894427226364
185,-0.034510172021442326,0.025805570509980044,0.07937398115693595,0.008222210345262462,-0.05177190518482363,0.05603869837745299,0.2273892481965805,0.4711341741178339,0.4393079013426314,0.16838134289724943,-0.04650722657385142,-0.09662530433203205
186,-0.04097514388711851,0.03008199505811572,0.08688979335260599,0.00537472419027113,-0.058323148776071705,0.06529017574691143,0.21622049440245564,0.4502889908384319,0.41708663476898244,0.16786955217892013,-0.024528502740502875,-0.07603052345024539
187,-0.034194636296617446,0.03720737197137258,0.0927311443814668,-0.005603306770984621,-0.05738577512540556,0.06674038973190544,0.20690125763899275,0.42580496527638634,0.3965124143758507,0.16304985669026928,-0.004068130658729602,-0.05609559163152697
188,-0.026159592284001353,0.04735813976402936,0.08496311746480958,-0.006120546973324764,-0.04834746055699902,0.0681843793578949,0.19309489549398354,0.39795905743209,0.3762650082832408,0.15183771189572065,0.011164286883943046,-0.04068092064134769
189,-0.0172926544428901,0.044329034419191816,0.08300873028922727,-0.007691147552421708,-0.0458791191048519,0.06711415786061503,0.1747138679991174,0.3684493285340301,0.3495208885870686,0.13884578249055488,0.020999058427984364,-0.02825023832997904
190,-0.023409962091743067,0.05004102973253868,0.08952210049476993,-0.009504017725184133,-0.05064317697509678,0.06805497215115612,0.15816897231639523,0.3397436145482365,0.3241120294347678,0.13220867281887855,0.02950266137221047,-0.015846172169180897
191,-0.023397528627740572,0.06100502835685129,0.08588935688040679,-0.01874285972372674,-0.04933080506399297,0.07183190292195764,0.14490547064722978,0.31342339816208287,0.30163981470074464,0.13125134195118854,0.04179731151091059,-0.003151357304764499
192,0.003885846057246284,0.06340916274320664,0.08385762852966418,-0.028355077268898986,-0.0436131938236024,0.07126488387389332,0.13925691126099868,0.2905521881027711,0.27853912493564104,0.12653202008987502,0.053826355783534265,0.012668786327222077
193,0.00449565566813833,0.057698647198660365,0.08707962918822429,-0.02294179460929245,-0.03365284252400946,0.06768578201848494,0.13098411037553412,0.2674297542240507,0.2550231376437897,0.11604468433350552,0.061114694891098734,0.02356538817617919
194,-0.0029634777591944963,0.055014176770389465,0.08126306411487119,-0.01633355970575538,-0.03205409145242316,0.06502807344212112,0.12229177771854914,0.24728836392988848,0.23595539980178099,0.1069753731931129,0.06353497384515405,0.03078385834204264
195,-0.004152650828990573,0.05630732213429887,0.07520662220757961,-0.020877045132432024,-0.03741462329091217,0.06213086730477281,0.10832963311137696,0.22949395261482025,0.22148842220272055,0.09619029794932205,0.06538345683028754,0.03572781252489807
196,-0.012640399890434825,0.05340389938245295,0.07126615942425284,-0.026555222675454702,-0.04077419971867638,0.056298915083030865,0.0935442358725665,0.20642771455906295,0.20257453019282357,0.0834055201958897,0.06825965140307615,0.04135227198758456
197,-0.020171639634745085,0.04648753739349666,0.070632481146988,-0.008501438582451944,-0.0425525406275721,0.05492059264577476,0.080433748230173,0.17699192000573352,0.17841344481113136,0.06956395085414768,0.07054731630657862,0.04331572251219207
198,-0.022843995147699258,0.03488684525969525,0.07097354718585187,-0.002643227694414548,-0.04485208317686419,0.055584828554667245,0.06740096823151244,0.14122568352497464,0.15189696461586824,0.05565197015654171,0.06880121081501536,0.046697997936454794
199,-0.026619227908650775,0.0367313187919791,0.07074652627529832,-0.0031212162603359104,-0.04767786681878825,0.05660325078740233,0.05832545394727506,0.11072732357583774,0.12965174160335832,0.04338640650318504,0.0633135678192799,0.04644276021705402
200,-0.027951171193360567,0.04246499392414541,0.07519852509156293,-0.004003193370667839,-0.041072787703861025,0.05268556568388849,0.0469885078041513,0.09479292289344202,0.1135593559674251,0.03472255047745631,0.06043881769410041,0.04555790290449464
201,-0.01938500954591184,0.03333141770832242,0.06474115095848951,0.0011073263167624432,-0.03303826658595766,0.05051983777526754,0.03854962808477644,0.09237642715516606,0.10748176103525034,0.0282714882055227,0.05770292899582076,0.049686398763564635
202,-0.012253655527201191,0.030053148730919126,0.053905429747493044,-0.003243303440632726,-0.02909266287132726,0.04179234329122816,0.03135539415669119,0.09081027160648306,0.09820038168521211,0.021663656047299328,0.05612525443289594,0.051189896092742077
203,-0.004948864806146876,0.03721130413623664,0.054546519470071456,-0.013199204062078175,-0.02581346266340763,0.043870968381184275,0.026072610210776698,0.08653396268749115,0.08267179538538895,0.014571376725433072,0.05928695545767283,0.05423202909235225
204,-0.001173362341481965,0.035597753826139986,0.05702679782445132,-0.015085503697780927,-0.02399762018386793,0.040661441819520194,0.027787774645338645,0.07949571533222684,0.07082859059631683,0.006142656031936634,0.06302084981801491,0.05295185251378549
205,0.0003773834292628902,0.029200687318695035,0.05165113367772964,-0.015205478691469747,-0.02150731070380932,0.033256556940652195,0.02801098396653766,0.06976739585143943,0.05740656425376624,-0.0013816482883577848,0.06506166358968798,0.04807851916273456
206,0.002618681093689031,0.025397452923355955,0.04422879936372082,-0.01656371062256617,-0.01733849837891042,0.03241337575908954,0.02219181793382948,0.05645682189870789,0.04213973101897531,-0.005926170515071237,0.0640788135887729,0.04507803513671589
207,-0.00043706035830852474,0.025236526469118382,0.04118630094845301,-0.014557975746629996,-0.01543806743529684,0.03429667304874526,0.00856612654301394,0.04005750013458087,0.027841183684092025,-0.011431226273961367,0.06068253236098188,0.042700923990523394
208,-0.014881964525430528,0.0250258678666823,0.04161481667040147,-0.006917572306041019,-0.01836698731996312,0.03696633212990962,-0.0038590898110450883,0.023273789245164725,0.010190784799976593,-0.01894218566379781,0.05756968347378719,0.04272937689168825
209,-0.020231573494106488,0.027015261230283562,0.04549816224381957,-2.7789014470440757e-05,-0.01969384789002063,0.033342071620407455,-0.011533084402708449,0.007636349254709629,-0.004140741353534337,-0.02386735161736927,0.0560185516629457,0.045426018526745354
210,-0.015371319604170017,0.030340797225566554,0.04514042161671642,-0.006397590896784681,-0.02257069276141722,0.03291658276564285,-0.015730577981879823,-0.005959507122243926,-0.013253174396863902,-0.026688523177388342,0.055268070263075286,0.04816891049438711
211,-0.004544998397995369,0.026185395782898142,0.03844554738346669,-0.010633872544391769,-0.01964452588706237,0.029220559836240348,-0.02040158185515417,-0.014189074874670034,-0.016799253222738522,-0.0299064169411305,0.05051109913352565,0.04801654246072344
212,0.00022506880953802703,0.015784152481196728,0.02966192527246435,-0.006795315009453788,-0.014230660889068806,0.022196958924271974,-0.02054715935359336,-0.015367526067047596,-0.016574392840890545,-0.035187708510116184,0.043120606246087934,0.045061909402535016
213,-0.0004113548597352015,0.0054888343382267085,0.02333408307612838,-0.004569173737749418,-0.013224899289316168,0.013050633205066527,-0.024148639358774267,-0.01304439423160008,-0.015996101210313092,-0.040299558007919775,0.03655001389899692,0.042457327700374616
214,-0.004805365205268201,0.006743612970463712,0.02607754430482906,-0.004829751692857933,-0.016754414560717815,0.011448160922329259,-0.028219563363024943,-0.011372563557290785,-0.01680689747046269,-0.04314022190595457,0.033394417085120295,0.04281126485632395
215,-0.009994132988332795,0.016377276659096305,0.03120275606349818,-0.005824736216205089,-0.019479364161849644,0.01676575348495915,-0.02931239814460636,-0.012100531953967632,-0.01957957787719397,-0.045233544202250654,0.03411204958857421,0.04623677867802361
216,-0.011310955726475646,0.018144403371858485,0.03306116005393335,-0.0038543135047425115,-0.019632925612649343,0.019841661704077806,-0.024884705085757037,-0.016115505258762028,-0.02267314863740639,-0.048762325337344266,0.03528768008974761,0.045739933449112584
217,-0.004186204303906593,0.020306545625971756,0.03227719391754183,-0.009508874789719493,-0.01738901429305923,0.021401032527776503,-0.022969833438627532,-0.022327266747027445,-0.024414987783443892,-0.052431669835008646,0.033255204484440644,0.04422560813083266
218,0.004144671954358797,0.028412956954441813,0.031089095536707932,-0.018550875334687855,-0.011731194444042675,0.022483539132192906,-0.02509739924470148,-0.026560208883898,-0.02784973618573955,-0.05439616354430851,0.029346171830493116,0.04093977409220249
219,0.0168977512266898,0.027428491018157797,0.02903162871935255,-0.023867125323915377,-0.0037727739843822793,0.022598523534795363,-0.02372836897195471,-0.026543258695610666,-0.03359909329061329,-0.05625578669908414,0.02659312005010144,0.03452522943965645
220,0.019418322472422686,0.029320329136290464,0.022220855889706643,-0.0239506105482521,0.001662134310625861,0.02055680038091861,-0.025504324683800258,-0.025899013128899168,-0.03910409748522466,-0.059799340410714816,0.024284385873922322,0.03176568220703099
221,0.00910759183046155,0.020234659357167378,0.01713793469103865,-0.017644060580149255,0.0020621344391183252,0.020443964797782044,-0.032188204475939855,-0.027292312388523227,-0.03811144972207893,-0.06369316575873812,0.019462735857070534,0.029214486713105073
222,0.0052575220343915,0.014492788081021007,0.018846368144071403,-0.012209196863229996,-0.0005007567445796538,0.017620525246041928,-0.037579410236595875,-0.02676497239491199,-0.040074060925075296,-0.06638219096852986,0.01225054400976728,0.027942054363309897
223,0.0039724279500242,0.014831458097571611,0.018579832552402743,-0.010913098364911368,-0.0015058024543186596,0.016790967806193807,-0.03959657495823468,-0.022417387394171776,-0.042779745772201755,-0.06677326766064597,0.00729625559503877,0.027831983622839937
224,0.003177465127917772,0.01711854223131406,0.020937541048645363,-0.006795051768692471,-0.003229920652117063,0.01472722131901122,-0.03926137511580165,-0.019173374876966638,-0.04547403832613381,-0.066202502082408,0.008969843602169791,0.026905055736760677
225,0.0004407243593983175,0.013797050273612508,0.02097919398789392,-0.0032058454649873964,-0.009218315025987559,0.011686352677429642,-0.03885597469521304,-0.01931905627357796,-0.04797514335181254,-0.06653926485996645,0.00919359010016954,0.02470548879862009
226,-0.007943818508155382,0.007899204619877538,0.024507502323946398,0.0012813109017447387,-0.014647892701157834,0.012774022830380505,-0.038818207948208575,-0.019865320634131267,-0.04850018705598172,-0.06813708146784758,0.008179450897535752,0.021611762019338822
227,-0.010181284056023752,0.0020940384084565423,0.023077854197610687,0.002144444426662777,-0.016148520794481036,0.007113357327260629,-0.04019019091970242,-0.019871225842954594,-0.048241107069641444,-0.06918615633193013,0.006566273486289138,0.017595472646106766
228,-0.01024565556972736,0.0025013641205599776,0.020959909627952918,-0.001018935287764514,-0.01508227470264695,0.0035215014025082626,-0.040283793103163934,-0.022546791225284343,-0.05094420070419785,-0.06946755328433374,0.0037766357891509048,0.014221403534816109
229,-0.006053429525418024,0.0030925749437369678,0.014966256955673283,-0.002097227437809648,-0.011688041208808092,0.003390011670846727,-0.0414826520294466,-0.024873228805749124,-0.053895831161710914,-0.06901976217248529,0.005742968358965074,0.012995598185908855
230,0.0018388347477338082,0.0024356417776373145,0.013147881773603038,-0.005814075544619084,-0.004400763067294817,0.001720711079549908,-0.04005508858946442,-0.0286651574705242,-0.053934527794815744,-0.06696429745901661,0.009743847437541177,0.012270429737369623
231,0.012362175764418327,0.009681643367414314,0.00887041917679375,-0.007247724193107501,0.0017166216579020729,0.00354510269570912,-0.038736153203598314,-0.03277986964307907,-0.04823757723878495,-0.06476942272529758,0.008800331375998137,0.009217420597073075
232,0.004928374212650771,0.007694773345369773,0.0039096859019079125,-0.0074183129253632425,0.004826327723361447,0.006229664241884057,-0.03904854051280026,-0.03322324544924623,-0.04137231159512535,-0.06517667468480412,0.004468366999045244,0.005121431040035665
233,-0.0071514225820423685,0.004820274475351452,0.005280360999252127,0.0023784016270929614,0.0025215643057649242,0.007638729058628627,-0.036952287624466645,-0.028393350722695415,-0.03733730117595904,-0.06418920565480463,0.00163605380703951,0.008857053473991489
