idx,I,II,III,aVR,aVL,aVF,V1,V2,V3,V4,V5,V6
0,-0.009451577678140855,-0.03990334635380255,-0.02235438112466189,0.03160879025994645,0.012807189320344458,-0.025588814651120617,-0.008583611034286969,-0.08637682894788232,-0.04657482730360165,-0.02292301460370591,-0.04501618466625607,-0.022111710502646723
1,-0.008693523049095153,-0.0341784030589092,-0.029752579693706087,0.025382625556521664,0.015694513172652837,-0.019959170325202773,-0.008669099735418205,-0.091983110215689,-0.04652804178946335,-0.02692045031201899,-0.0457340803823524,-0.023080981256690017
2,0.0045550247164208545,-0.031956314977385686,-0.0234070419906356,0.015328170924378659,0.01608213848325036,-0.019421534314386604,-0.007394237669582175,-0.09643174776354752,-0.03886350211874462,-0.02755714916347007,-0.04593357311780118,-0.019524095333891194
3,0.013462098085947833,-0.026912667393978483,-0.025084467053943692,0.00803532523997144,0.023209138103284913,-0.022775886210875184,-0.00651253660787258,-0.09745008440368325,-0.0333148393361025,-0.028167385263237376,-0.04641487806357916,-0.019829219627695568
4,0.007840656387827076,-0.02682741700834132,-0.0217516949625691,0.011489844218312095,0.020311031445148373,-0.02164086643349485,-0.0043907359253477,-0.09548334309402734,-0.028198081616637102,-0.025353347584089497,-0.0454205269499508,-0.022418164367596184
5,0.0046766299618871375,-0.020268306709481224,-0.01749149698338265,0.009105878959753157,0.013181026547679556,-0.020136772787086865,-3.1640671798808737e-05,-0.09279195736375777,-0.026939773978329497,-0.01804241178721605,-0.04097789542598562,-0.025696255054794104
6,0.007294375985128932,-0.014103491414540382,-0.014054783451291141,0.004714598300661803,0.01271636492345096,-0.015487672471412455,0.0014058039475826362,-0.09160856114158482,-0.029711257476481307,-0.011640230571609154,-0.03677826913618702,-0.028268254717755004
7,0.009107960478040592,-0.013172279969899718,-0.019555524796299757,0.004371744085550815,0.0150938874477074,-0.015790942528871223,0.0008524211594931018,-0.09130714700895098,-0.03208248338691408,-0.012053408287432558,-0.0379984509884876,-0.028000522131026512
8,0.007200248932939942,-0.018171617289698065,-0.024291887140766775,0.008657268327259509,0.016517844371765136,-0.01875953534110456,-0.0030147797120569355,-0.0889025190603322,-0.03065278959838504,-0.016757421361107513,-0.0403629518050505,-0.02562094436258406
9,-0.0023984831939417237,-0.027164625499287182,-0.02228612972122628,0.016273447367577694,0.011452490492066186,-0.022365363273001294,-0.0020618483926002074,-0.08451552945093802,-0.027174819419982177,-0.021204562101553297,-0.03915862414625679,-0.023077404364515428
10,-0.005709239951877689,-0.023644472299991594,-0.020310429071493406,0.015354447835030951,0.007460124272516043,-0.016917552757084002,0.004527783830231441,-0.08217169125335183,-0.02368416434327813,-0.02349735483013391,-0.04047838571200768,-0.021422460437089345
11,-0.012302944286435264,-0.024344269528675865,-0.01618035890786395,0.020484750534219852,0.005350394512954514,-0.008197793371928188,0.011314615934596825,-0.08254881811389014,-0.02102791720858986,-0.023007833376612358,-0.041234059032518755,-0.021701774957386576
12,-0.022065775826201492,-0.026711628134390993,-0.0092592310671776,0.02745669011680786,-0.005636375938630145,-0.009534660207471705,0.01062783429201898,-0.0814474646199458,-0.02039745660591044,-0.019167235733025086,-0.04041251446218202,-0.02062452791027988
13,-0.014786717919092775,-0.024678971187700332,-0.0028415582776708474,0.022428954118720087,-0.004224154100679348,-0.008469624343915644,0.007077262782977954,-0.07798035215021153,-0.021751226291788644,-0.013647722675768616,-0.039731497367248236,-0.01986039455323572
14,-0.015218593913341454,-0.02070956648259838,0.003567151397218093,0.01809503670253153,-0.009651579335306377,-0.007371689299368494,0.004632446813076393,-0.07660228442734317,-0.021897484893838116,-0.009980417954157123,-0.0465160366729149,-0.01772745635858304
15,-0.017425202885064106,-0.022367693202482823,-0.002176431406021565,0.02210313635561343,-0.010095742532144108,-0.009333658253252086,0.0054449871735160315,-0.0791376044498304,-0.024991273444069168,-0.009488597600415597,-0.05152819362225675,-0.018195591777014266
16,-0.016268518206016845,-0.016287288954667856,-0.005347310019572551,0.018651539432336387,-0.0016748738231639783,-0.0034471860075175487,0.006017973713604817,-0.08166216944060292,-0.028952205807841937,-0.01189809418705429,-0.05246914368986784,-0.015166661066367812
17,-0.009480300171633142,-0.010693042399790893,-0.0008682526402973394,0.01139671187166811,-0.0034187140183116783,-0.004661633245285085,0.005940925029931349,-0.08042575860302426,-0.029258169824572678,-0.015810151190789403,-0.05036082172040998,-0.013813845912168575
18,-0.018071237105321124,-0.014447801192643871,0.0035118760953286917,0.01756955973493859,-0.007833674631538029,-0.004169676657795588,0.004216412893606374,-0.07635183036047807,-0.027640653150936764,-0.016855036146071978,-0.05029159783881812,-0.015773548019457424
19,-0.02129490070556643,-0.01917234584043044,0.003357045065921535,0.02310040904797816,-0.012156648016516638,-0.001467472901188047,0.005522002396732145,-0.07319186611545271,-0.031020321937592698,-0.0130518893337319,-0.052903149486660604,-0.016831064964682948
20,-0.0183818981384723,-0.01620403524717557,0.011020836781697765,0.01860300727878002,-0.011909637283832725,-0.0023532255232522363,0.00519833038359274,-0.07306053174137223,-0.0347550766235343,-0.010751806479301997,-0.055552542534666946,-0.0163559744667032
21,-0.019597749731779152,-0.013529495178969463,0.00875266581082141,0.017873663041330444,-0.012125542804836003,1.0989225667076483e-05,0.007951899188248478,-0.07420029788122409,-0.029599655304923474,-0.011610213881280584,-0.056587462366895616,-0.014346826674257025
22,-0.02255340710674665,-0.012337459531574523,0.017458880213256985,0.018755473905116764,-0.018014434109907617,0.005327574896522453,0.015472404187695033,-0.07230025464095988,-0.020066212525575736,-0.008367720708500708,-0.053275168319815776,-0.014515109544132009
23,-0.024656250970078585,-0.00027728963722340274,0.025442488176446672,0.014819259758897998,-0.02295240649821799,0.01597101053508664,0.024106457747754998,-0.06390581062645262,-0.006980295287958481,-0.00010808452866954872,-0.046694171008509235,-0.0128626468186741
24,-0.024915456806832673,0.020289348089183527,0.042949284647094445,0.005900109440079421,-0.03166514451785937,0.028832324510163865,0.031210820277923233,-0.05080716367365523,0.005291573299186787,0.01764485178663474,-0.02954853744476419,-0.004004761901078867
25,-0.02624069623719731,0.0342594617642894,0.06479963942168757,0.0012775458006058504,-0.04184622562050537,0.047360881861054846,0.034523722121358416,-0.03879618249024833,0.023079193898039946,0.03640210293693976,-0.0069269667509654995,0.006998641032324442
26,-0.030441107269297975,0.03918287749842772,0.07338876231137191,-0.00316690475889811,-0.04981797171529028,0.0600592095225011,0.03456670133289505,-0.028059864846781368,0.03886188500929236,0.058643438660984815,0.015722764862322512,0.014281894456533816
27,-0.02231039974327166,0.05174070433923344,0.07604725188608207,-0.015914307715657695,-0.049261047103775026,0.06320201754354177,0.03777985253448623,-0.009555037642727611,0.05972037111484656,0.07982265362846624,0.03669683420424044,0.026611894024273455
28,-0.008863190373319608,0.05689249286475227,0.07029191168758152,-0.025217535661080766,-0.034644142817623735,0.06354579456297199,0.050648464426960645,0.01934194137813556,0.0907533312180442,0.10586835047998035,0.056635267031336645,0.046422950658369294
29,-0.0042798784431026075,0.05732406171609816,0.06786551966684584,-0.02111204160221361,-0.033030878702280116,0.06641211378715695,0.06283098044070609,0.05796514986786502,0.1259672814363461,0.1376745551839667,0.08466527089222578,0.06810210190663422
30,-0.0037786186143994524,0.047388384726244376,0.055983809845147475,-0.01923436126811636,-0.031483229026967104,0.05743216703798942,0.07162508757194308,0.10049900601428653,0.16927669551803898,0.17870716738727227,0.12246420675522812,0.10128902955738567
31,0.00782958991972884,0.04123221798225277,0.03814985722783737,-0.023220863365034733,-0.01175874199115293,0.041703555485651335,0.07471180107162348,0.14633985066193464,0.2192551550151535,0.2341081148162217,0.17602716571305685,0.1525135519206065
32,0.04268328808993325,0.04884909583569542,0.012829537224617951,-0.04848497235080148,0.01820515434504784,0.031103874044861805,0.0668789415392657,0.19604940668008727,0.2778953189362311,0.3081863160925094,0.25474622724518725,0.21819944350226123
33,0.10265811910715694,0.06879316034076377,-0.02935054918080476,-0.08637197933212232,0.06722567099744473,0.01942290890544513,0.04533434908435226,0.24998267295412954,0.34232890332708193,0.39137638937209573,0.3435460151138652,0.30344151181699786
34,0.18832009234846447,0.09064199162364339,-0.08871978620601015,-0.1394502466557369,0.13760476503720576,-0.003964470378000766,0.01369804191122324,0.3117964653976774,0.41623390478234645,0.48012157046827775,0.4440242786167201,0.40757251125773675
35,0.28886868748661104,0.10594371476002634,-0.1762849306696141,-0.20110745757939905,0.2290147940095935,-0.040576872294594904,-0.035126962008192486,0.37901044994384414,0.4879428927244224,0.5746044574810367,0.5681043776661663,0.5254896268144778
36,0.4075409596345512,0.10723053351526787,-0.29248875309273703,-0.26277315411836266,0.35192770276940855,-0.0919696971694644,-0.09713134756670046,0.43280584588862714,0.5624148985440387,0.6666828692441429,0.6717777120558026,0.6386735826537587
37,0.5322821733835426,0.10694262655618711,-0.4198872171957606,-0.31883139873440286,0.47918221339289174,-0.15581288270051658,-0.16493278536854722,0.453922384018401,0.6102031976691609,0.7197320237766787,0.7451690033248126,0.72505788283611
38,0.656928989134677,0.09430455927047379,-0.5436162444788257,-0.37646761825705155,0.6024616137664236,-0.22599134492099465,-0.2352362161766421,0.44772877407644407,0.6261079353874306,0.7388163515780835,0.7978994393289245,0.7988602536945246
39,0.7437378949973641,0.12274118943749436,-0.6077964774292797,-0.42958364433911816,0.676938481706473,-0.24910281625562541,-0.3061926986323247,0.39997619058171396,0.62197691166998,0.7558754561146814,0.8271986165094083,0.8621636787863183
40,0.8029284947174471,0.15091637651367557,-0.6237051478546294,-0.4769044160576317,0.7103026007061325,-0.24236800925738658,-0.36958564345307304,0.3292306307265861,0.616492848538011,0.7608869776808829,0.8432673245333162,0.9066038959639167
41,0.8356419765118919,0.17455977743276796,-0.6235045734499295,-0.5018841108341021,0.7282629936389536,-0.22445721531235968,-0.41173432047660385,0.25164243692389726,0.5900513993189134,0.7151772555054063,0.8059317741047286,0.8997070763033881
42,0.853161353617947,0.16237568050664625,-0.6634449241750733,-0.49271495154518424,0.753779999105413,-0.25279489488687185,-0.4327303540846924,0.15131726328746598,0.49457201752840824,0.6139080872659384,0.6993200732833244,0.8202870188513209
43,0.8178048682696809,0.08974454299521434,-0.7229143990718968,-0.4464103485287563,0.7864833050338156,-0.3219212146924938,-0.4288323824281847,0.03483705064662299,0.32621811231296977,0.44881949618213024,0.5404249597233408,0.6913767301664702
44,0.739943293238803,0.011332044118447423,-0.7361628807491986,-0.3741483566756395,0.7466317275239684,-0.3568538275118985,-0.40678802504227896,-0.08999442457499174,0.14130935443989,0.2627011962299983,0.3796156196551721,0.5475002424797318
45,0.6263787316532609,-0.019855618211513534,-0.6813379676974359,-0.29557475210458983,0.6492962130638684,-0.33887667888779827,-0.36778830990395456,-0.2241444399514035,-0.03704325267897225,0.11478019797859834,0.24866111575826422,0.41963879834234896
46,0.486052578452562,-0.03578012481159623,-0.5564129471996997,-0.21925042976012976,0.5233695751412089,-0.2926869001572535,-0.33104998411861897,-0.36628953250966856,-0.2018026627178579,-0.023825811319022634,0.12596734300210957,0.30448295278317483
47,0.36354859514242477,-0.03493212052024495,-0.43546216946968486,-0.15148557521761294,0.4015004674529917,-0.23478401895543155,-0.29064794572559005,-0.5025497266271903,-0.33115516854276716,-0.14921518077454232,0.007715255008605051,0.18694162460540018
48,0.25388197779409294,-0.039388840013813924,-0.3336725018578891,-0.08948892820823495,0.2976608895664228,-0.18499767859380342,-0.23364835928496297,-0.6039345263621225,-0.42992122819571454,-0.24860872009328583,-0.09770743383864108,0.07425579138314604
49,0.1534677321564612,-0.06584473287891413,-0.25760742521845514,-0.0285277287430416,0.2147161183375139,-0.151829641063665,-0.1669105539063701,-0.6292463008171298,-0.49792194059133726,-0.32372800645055677,-0.18886023710615685,-0.028633796285855977
50,0.07323475981319734,-0.08972265682584216,-0.20262766648181416,0.026659230236598948,0.14276164210833903,-0.13651054236116034,-0.09928920726747914,-0.6304784284712484,-0.555342775201005,-0.3912048833023488,-0.27244111113731095,-0.12143096242189882
51,-0.0037074170657116438,-0.09412896407333861,-0.1324226518864587,0.07060066904100333,0.06457372023576778,-0.12516508627544692,-0.03241118565438089,-0.6482894703775307,-0.6191355584925615,-0.44073699504691133,-0.3397468699828252,-0.2025954540132634
52,-0.06191006088845302,-0.09773207790051326,-0.05740319805820993,0.09604861456611712,-0.009512936917349968,-0.08470762644031368,0.024486468342999702,-0.6457161146541848,-0.6456086921117579,-0.4839648157970554,-0.37239589456364,-0.2553150915628928
53,-0.09290698411956286,-0.11075621601663906,-0.019915444892823746,0.11086308951630106,-0.04788772198516102,-0.05474740226440372,0.07010096404599822,-0.606220060570239,-0.6146171739817674,-0.4887459749417269,-0.39037931816424404,-0.26947328768997325
54,-0.10665895268423119,-0.13001456138719722,-0.02581546754259692,0.12319788810097493,-0.043239029024211,-0.0687453892228963,0.10038093528618991,-0.5553065758700677,-0.5801377293075076,-0.4729432152279473,-0.3958362889362712,-0.28355463344786624
55,-0.11042172472642406,-0.15000733456099719,-0.05208842099954905,0.1273700443329365,-0.014753998701291838,-0.10382210630542434,0.11009825089348237,-0.5230658263951891,-0.5652297601366177,-0.4709230076224023,-0.40849961626489373,-0.2930065877389176
56,-0.11011983496184129,-0.16954088899917275,-0.09618896586848988,0.14036130231036276,-0.0011302996337532803,-0.1272275890165407,0.11030792524823721,-0.512908992401067,-0.5593855610685918,-0.48018483746662816,-0.42295130664265046,-0.300771863776912
57,-0.12019962040208018,-0.20304615707099155,-0.11750941515068147,0.16242425916873413,-0.00020644125306211458,-0.15284767184011344,0.10626237332091906,-0.5062581916156647,-0.5534925017228496,-0.48344029252181153,-0.4340695270886343,-0.3103954267215795
58,-0.13398483597375394,-0.23073081037355658,-0.11688557479467443,0.18535948217196285,-0.011598915201510341,-0.1711930573661063,0.10311530594365989,-0.49254986477928003,-0.539312033725465,-0.4754757138427234,-0.43019648217553896,-0.3158446941502264
59,-0.14310591358902883,-0.24713032154943654,-0.1161443768065056,0.19922493755118548,-0.01959327288588358,-0.18066443385873354,0.07591044571986434,-0.4823634571726898,-0.520672362192445,-0.4561445235809357,-0.41658807906962075,-0.3105034553056271
60,-0.14290746399293147,-0.2543201574195424,-0.1047417815550749,0.20126609427676148,-0.021683258616758638,-0.17994170850348262,0.045237657776972376,-0.4853451515710548,-0.49947532227500135,-0.43785131404510136,-0.4009486054187269,-0.29638553108827037
61,-0.14642512762467996,-0.24082996413190155,-0.08793660629599821,0.1954301912026281,-0.025564988327037665,-0.16421647733306088,0.03225127646058902,-0.48884413651068687,-0.46857007596316524,-0.4171352399745921,-0.3751323168995621,-0.27791828357100723
62,-0.13923121611360137,-0.22246497431148435,-0.07425234161839903,0.18127599058902305,-0.030510630936283416,-0.14454951933977933,0.03358069443196134,-0.4525062812623888,-0.4284424137635452,-0.3862733535972037,-0.3435073033899706,-0.24913551218090776
63,-0.12572709451668523,-0.20339797551213107,-0.06730330615618695,0.16396602980489666,-0.025198480150911744,-0.13178088693648476,0.03707583233567693,-0.3860636883375186,-0.37904131215440795,-0.34457563400508784,-0.30927213398526154,-0.21592752445504146
64,-0.0987432676775553,-0.1815753911703632,-0.07618894701217797,0.13623099604203587,-0.00638378374825992,-0.1268871455977198,0.037750083514408145,-0.29748782758895176,-0.31793172506211037,-0.2821793783623526,-0.25449071643438603,-0.18050657453574365
65,-0.05920086006304371,-0.1630840874004639,-0.09389470877376815,0.10765870281559407,0.017354960692761538,-0.12358186190894577,0.03633990031327269,-0.20218176774607824,-0.24140846501040739,-0.2122239527945698,-0.19172126078233176,-0.14479026565877434
66,-0.027675835658492076,-0.1322457465046183,-0.09776913823296152,0.07838075947940842,0.033818922579116194,-0.11326478544739646,0.03652699924586457,-0.12090903934898972,-0.16309545036649384,-0.1415448132396122,-0.1399993780643611,-0.10376296893736403
67,-0.008037470191631896,-0.1011714168461472,-0.08050204324407984,0.05591448410484554,0.03932102524795124,-0.09549440939287661,0.03735219071746076,-0.065259933121477,-0.0984725889818707,-0.08335285011880059,-0.10241468661973903,-0.07742775641286045
68,0.0041549722953594555,-0.07552129568927465,-0.07396492910920308,0.03876130247184596,0.0398394393411655,-0.076748849751556,0.03884743877754869,-0.032615120049578526,-0.05459360577692124,-0.05254397908136707,-0.07543698476766053,-0.05839524573019809
69,0.00473713607054509,-0.04747823191445696,-0.06584633847856837,0.02227109499143881,0.03625791963416977,-0.056701308360408875,0.038235617489637656,-0.01382849544546405,-0.026479637347036997,-0.03143841371747338,-0.06124569386901657,-0.039694963680591236
70,0.017045552423325498,-0.031963255142808907,-0.057471197240495014,0.013343919004223263,0.04081088337447416,-0.04180151248086228,0.03707590356723668,-0.0025560639161261133,-0.001741458154502851,-0.016772199187270992,-0.052801252209315475,-0.0244324362795041
71,0.02453116837475758,-0.028873032218381126,-0.049035867873778484,0.00502352599208063,0.03888048119931273,-0.034657681266313786,0.03883154644806518,0.0032334268657235425,0.012497188278738712,-0.0045583131027341905,-0.050156370093870785,-0.01570429356604814
72,0.030148240855724606,-0.024353932670490904,-0.04610784360054179,0.002053419530571027,0.03929856731781467,-0.031989831063311554,0.03647772739597325,0.0061789790050535455,0.026820091151851154,0.005368293790314517,-0.04101673595965198,-0.007252039014080003
73,0.029669042968001633,-0.016262095425422146,-0.04385875130595648,-0.002987042047670486,0.039020779227150956,-0.028160670863737233,0.03428667567725226,0.00783456133759688,0.03315114434758376,0.009472173354599853,-0.034360442219760604,-0.002510616163667184
74,0.031286453868054016,-0.015176914959513753,-0.042985262587215016,-0.007782313072467638,0.03827552306605089,-0.027975965496812187,0.03268508544644985,0.01124124116571837,0.03070032872982318,0.017263197750742046,-0.027683001144399002,-0.0013249024325425046
75,0.021955509602288585,-0.0170296038934252,-0.03353072927571387,-0.0006313129941574736,0.029362154054371092,-0.024664424779942653,0.0298457527273287,0.014927542650318147,0.032228669644758255,0.022952982726221132,-0.02164549827108316,0.0038759269228801647
76,0.01538994057878743,-0.019006407704385747,-0.028367088084757623,0.0038303638935403474,0.023975477406817183,-0.02140503581496129,0.024903197040387178,0.017475970895510298,0.038349014220502256,0.02575015080569796,-0.017437717042229014,0.009296230565457754
77,0.022215889269088265,-0.008739332686128032,-0.02564671902050352,-0.005428237705523966,0.024955798843203966,-0.015461144857409112,0.020277146589633116,0.018678989201779638,0.04614623671364593,0.02687676098752259,-0.014928046910080909,0.012388571583159012
78,0.023153386752628007,-0.004476237185139368,-0.02490935302309196,-0.008028534197788161,0.02376174857624939,-0.011666798098190335,0.018121916714575484,0.02006889490085489,0.05431929956936159,0.03012070662200743,-0.015207539439053473,0.013546048211250493
79,0.018352341933718597,-0.008609641924741757,-0.024227422731231588,-0.0008004639233848438,0.027522481598311305,-0.011526632056682282,0.01884502010936918,0.023051256052648045,0.06101966998360324,0.03521662252308971,-0.011865436548484608,0.014417104208099791
80,0.021083782349737817,-0.010678908023783813,-0.021610996306129844,-0.0025432693873178036,0.027424557699391484,-0.012265499049977266,0.019435728374739475,0.027304392608719818,0.0659600621050207,0.038789925194362376,-0.01088638349473699,0.014719685254838919
81,0.027774647909745383,-0.004661820098378225,-0.023575205212973304,-0.01095028487330976,0.02885327286102518,-0.007192596989362994,0.019325003062130603,0.031685839088145366,0.07089071386386936,0.04132416900626566,-0.0053549178296125755,0.01550723747446299
82,0.031399610380854974,-0.0009446261094893972,-0.02040562231698391,-0.015196710899806253,0.028962907316571827,-0.0023461779841458504,0.021487061849849446,0.0349193946412827,0.07506291821404347,0.044052999094364484,-0.0014271239506695732,0.02048253117734417
83,0.02206499247403202,0.005166916253002919,-0.016235162144747607,-0.011601773056593214,0.02124704038443443,-0.0034022335761134687,0.022567871383321076,0.035848624457456554,0.07583338454603503,0.0448583519857441,0.0002817947833992523,0.023574569954920827
84,0.032988928029274514,0.0046122161910948445,-0.02092327215019394,-0.017490531524228574,0.029053063164778913,-0.008131845007375732,0.02164312012846555,0.034681386030449464,0.07443710984640543,0.04355886877147383,0.0018865635713286276,0.02075616305896747
85,0.03226717982460834,-0.0032327185108847597,-0.0238241055513738,-0.013207190070905666,0.03147302478721607,-0.013485908384061154,0.01960665625316427,0.033791494333987086,0.0749146671397537,0.04494344741015396,0.0043735260588989465,0.020031296117060976
86,0.03211434977401255,-0.0007946847868668422,-0.025816057273990015,-0.012261857952757938,0.030146824387701956,-0.013811815084153784,0.018536868022010093,0.03625605360684102,0.0771162552537093,0.051454890431567125,0.012405315257017666,0.023743264215374753
87,0.033598904579964145,0.005304785313488903,-0.019938682329925305,-0.018108069834058306,0.027265719759920863,-0.007176003566654454,0.0200938604430809,0.0419166474652596,0.07800076052693264,0.05611050261312723,0.019904600012980868,0.02844264841751379
88,0.03153471546412205,0.008823637626247292,-0.0189193787864049,-0.014865063870804919,0.02949721197047387,-0.002828685736766353,0.022291363931115086,0.046225922914478856,0.07725515360247673,0.060224860475393674,0.022441408070661143,0.03453131933909136
89,0.023008536368758707,0.005262084299817242,-0.014385010177383362,-0.008401442309169019,0.025613669268287852,-0.003048231416762329,0.021057342296389503,0.04583602887592572,0.07883659808082563,0.0617975113590023,0.019475296456939673,0.037787216889692415
90,0.019872891025854433,0.0034196466076392893,-0.014942574306271248,-0.006044203693367306,0.02469995501647637,-0.004462601368421964,0.016127652950288607,0.042692591452584375,0.08107031969684317,0.055582737397429596,0.01569265378651783,0.03730213658083183
91,0.030982538055071757,0.006970719210462327,-0.020529087836092454,-0.015360676418781347,0.023508733334498537,-0.0030355422633412277,0.012457575412996816,0.04109723563620728,0.08159413879512634,0.051411536291388685,0.012693293083532103,0.03623388222430243
92,0.03229118559945785,0.010315233420262448,-0.016113534450974916,-0.022798366406774642,0.022698614637507712,0.0009806163697940982,0.012795510313382847,0.04433315830195342,0.08194760088331679,0.05173527795211166,0.011281725069341476,0.034097620610316515
93,0.041834233779805365,0.010618316034766562,-0.022364552622919646,-0.023444896234597827,0.03227429192421946,-0.0006706142533644439,0.018087670232019817,0.052561537293350696,0.08154224311733779,0.05574055274252973,0.016676012802748226,0.02918219976363068
94,0.038376840766321155,0.010667181319088807,-0.030242331426500322,-0.022040258607897885,0.03258520518667947,-0.0015160566691579131,0.020304867533035946,0.061450255308769616,0.08116053738126087,0.06294326634556766,0.022188063795411085,0.03073601074994338
95,0.03079533787637815,0.004356201982665803,-0.026717200552015687,-0.01887198135461069,0.028652950130677347,-0.0063152275673407235,0.02193106318779431,0.066981676298285,0.08236268723565063,0.06544147324579944,0.024817060574055555,0.032680547807555735
96,0.027603712304713715,-0.0007214188241498377,-0.026053939127815378,-0.016696584161318764,0.030262841792832222,-0.00507191478920434,0.02212837254314326,0.07056854609528701,0.08193885018847831,0.06838632466526381,0.024990642283257685,0.03881669037026512
97,0.029518859110410516,0.0017742384760942751,-0.025103192853298352,-0.014441107980661356,0.03223137091654055,-0.0009910920229766343,0.020828106998943736,0.0748011413236161,0.08164351295240141,0.07137718636735088,0.02515472839913058,0.04253008863332623
98,0.03968832334569478,0.0020369103785575883,-0.0256566100115352,-0.020784816154675638,0.03352276574958413,0.002221472283530347,0.018001819221410264,0.07856987360520551,0.08307714770517052,0.07152914447824707,0.02677855426850087,0.0415794452522624
99,0.036083820554156584,0.0006807416334035608,-0.02546912466894348,-0.024914050548577746,0.03222786289972655,-0.007630336159642991,0.015243023903788672,0.07937931620972985,0.08529647175959168,0.07132535831323758,0.027328372214789814,0.04054830910419542
100,0.03714935639284875,-0.005817932594185072,-0.02596755286615217,-0.015483305855109101,0.03221804104033969,-0.008249951392941303,0.015180254403562535,0.07581390557642481,0.08717141908882757,0.06961672643613553,0.02484636473477794,0.04029519262273966
101,0.03296373432268855,-0.0025311504218208216,-0.025089919520065933,-0.012864823121369636,0.029840700187397116,-0.005198903028002726,0.016270310376208293,0.06873948147441059,0.08850610959953961,0.06988458534986533,0.0219653442110223,0.0373154863743929
102,0.04299000072426201,0.004553523735333642,-0.032243148285980114,-0.017888063552723734,0.037359624261075586,-0.007860929409589799,0.015570830608931455,0.06308386544416901,0.08985958969092409,0.06874770105728467,0.02501026059499834,0.035766518970551595
103,0.048155836519605075,0.011884980115488948,-0.02335082166524291,-0.02347349392795725,0.038363286010113226,0.0007907543190774219,0.017012291385394198,0.06273388469579447,0.09497702797703103,0.06791390534580455,0.0270796730961183,0.03686826977114992
104,0.04227253949964453,0.007976861560465596,-0.024253112603340787,-0.014786533696662704,0.04147474999923265,-0.0020813346001761603,0.019185309611485596,0.06419979959747227,0.09481357901254597,0.06628394509584074,0.0237767561325135,0.03308300595263916
105,0.035831751248926395,0.0022469942340466783,-0.028372195968491,-0.00981664174323177,0.038279721608805724,-0.008260873982861457,0.014765200069692543,0.06407305836180718,0.09097453743920227,0.06314506330895261,0.017261589111156085,0.03315808362740977
106,0.03397218136390325,0.006669287129381392,-0.03988168136661045,-0.013100677916793979,0.03811269648115216,-0.011870935278551,0.014649939775725321,0.0657377283559346,0.09028374227594631,0.065171039759363,0.013422562770062324,0.03427903379470087
107,0.045190560510589374,0.006393923055468258,-0.03678552222344639,-0.02366222053111061,0.04393929204788101,-0.00936306563545206,0.016213846440762843,0.0703951975634297,0.093980627747703,0.0722896424584752,0.01703638660453457,0.03747137390281701
108,0.051050292438146364,0.005198888436172453,-0.03153442097040822,-0.024757490034694827,0.04616301481276794,-0.0065991971185386,0.018835238041706653,0.07404675315691554,0.09756914033069272,0.07647842874304489,0.019331477247680605,0.0393963193427522
109,0.04994415868331352,0.004228276455178079,-0.03398219511481845,-0.021743392467457837,0.043869470027950594,-0.010033154958102341,0.01924421637330216,0.07626433524708612,0.10129364443539701,0.07813355856788179,0.018437772659335664,0.040787676608425576
110,0.05010217627828663,0.00403524820174252,-0.03054151713490179,-0.030651128131932943,0.03779744153093269,-0.012855113401738966,0.01684223120731764,0.07935093462352386,0.1002765213365798,0.07862219358924577,0.015356706102108797,0.042019190207672356
111,0.05012651917351147,0.00629473744722514,-0.03474974854812084,-0.029477423801192254,0.04096246618260708,-0.01292997379107887,0.013586112743098181,0.08258244502235985,0.09851508920953664,0.07643969719653507,0.014049333394593268,0.04189587369747899
112,0.04719386926583252,0.004413327799874373,-0.04065067060465084,-0.02399055003342296,0.045772009698146945,-0.013922421968376241,0.013253708978515142,0.08463917383698014,0.09700770744676694,0.07769501990553312,0.0172451543683119,0.04120523994737747
113,0.05438281970688949,0.006222443932275673,-0.04213794842268552,-0.02754371859742707,0.05417324203878348,-0.01730588805848318,0.012308216922571039,0.08584348863064087,0.09864531641258537,0.07793709100263035,0.022447712966621597,0.04034081817093099
114,0.06224073975838517,0.006149340216894228,-0.053583517560918247,-0.029185907555109157,0.062088564376266975,-0.019611535060157267,0.01283486180329798,0.08670719169601596,0.10101797532338269,0.07748434640551692,0.023691800912913705,0.04141955349755751
115,0.0514543654562615,0.0045347974480913576,-0.051041033401249346,-0.02629508166824138,0.05335956591618646,-0.021105309525180582,0.011134722606138368,0.08853204162030488,0.1020857280108851,0.07816796375091928,0.019976070050977426,0.0411059805070453
116,0.04822220051553318,0.0023502746892012033,-0.043988046451614735,-0.023793859090619613,0.04598182848233946,-0.017645876976678184,0.01027501372467233,0.09349638685642975,0.10478882748216002,0.0770176776196819,0.01874864895545017,0.04022870967148442
117,0.04475535775477927,0.001128313300267898,-0.04361695147362564,-0.020557038139302538,0.04330459231019034,-0.015788476311593816,0.00919380942401398,0.10096996716976059,0.10646167013028413,0.08095963523536043,0.023656216410758837,0.04420024634451903
118,0.04837175334609918,0.00033075282975920006,-0.04527725368901096,-0.022652293724341237,0.0482065492897637,-0.01630198324398468,0.009018413366393372,0.10633769535518083,0.10801771381624231,0.08630819041261056,0.028603296996918125,0.046853627543132166
119,0.05426826417640186,0.0032100634423945255,-0.04599395473850244,-0.027274366701183106,0.051973264957933765,-0.016941306480476023,0.007791849630972202,0.10681794460276996,0.11072121889889308,0.08838347491322437,0.028526718488734677,0.047837409477520215
120,0.06018642854375007,0.0037902458777128853,-0.04661928152162888,-0.0318147492568034,0.05355819867273597,-0.017428817629163987,0.004241105835582262,0.10548848509641034,0.11497270859354401,0.08978389233846013,0.02668468955775859,0.04651511961355782
121,0.06217325605790293,0.006452373817697018,-0.04801922798031476,-0.03233629980448065,0.05810577621007812,-0.01784813971219268,0.003928027521585104,0.10620383908731376,0.11467447254958613,0.09088774488128132,0.02833582364830925,0.04645423272222084
122,0.07169173550761532,0.012174528432498615,-0.04959556966812382,-0.04062309138410081,0.0639747145224178,-0.01564833739049632,0.0023566194378778077,0.1088032233444913,0.11324889416087452,0.09247097652431104,0.03273223413533071,0.04949811265021918
123,0.06367366958619469,0.016933790847912137,-0.04202922704915091,-0.04090833366404774,0.05176690383577749,-0.015929006040639286,0.0015418229735712063,0.11229337086739408,0.11651695558451944,0.09413066756399015,0.03543705619930748,0.0543417606380071
124,0.06100048740122843,0.014762019912409212,-0.04729430344008331,-0.03855156468778828,0.05314869257568131,-0.016054987109396845,0.0019693024608843455,0.11772942588787952,0.12464556264394866,0.09703173733439831,0.03654188310401854,0.05639910614964316
125,0.05832084426282321,0.012151952320151389,-0.04303881433806496,-0.0387792206647749,0.053841361674697205,-0.017139514542742693,0.0035964459675504063,0.1257928541682472,0.13317666799565825,0.10025103222136476,0.039529609494891454,0.05924853838077956
126,0.06260978754455926,0.014442338782387858,-0.04925796838359064,-0.0352272864060315,0.06096214285747621,-0.015146864791194443,0.0054817921337982686,0.13452791077151394,0.1377419025333082,0.09985168736852075,0.043474179510574,0.0587689086365241
127,0.05752313524506114,0.012620603002346686,-0.052441918517496064,-0.036359637679619264,0.05733453279060503,-0.01711926806425822,0.009171696373123065,0.1405707895379647,0.13699569019448085,0.10133182281405981,0.044681122880744356,0.053879243355609646
128,0.0635563978453027,0.013229677383720318,-0.05919510482612519,-0.03682426733601059,0.05896512894455746,-0.019897589628124032,0.010391266818589238,0.14309500079045395,0.13666851738731492,0.10784937293028013,0.043227810789167334,0.052192818711403605
129,0.07288609207084237,0.017525225292559572,-0.05802784390184125,-0.04004563752199061,0.0667485648933774,-0.018452710154515557,0.006375160822866129,0.14508741448037013,0.14067266919707228,0.11109702470725673,0.04074349822838268,0.048005230615259895
130,0.07713331968643292,0.01965041852153813,-0.05570334368494333,-0.046365352299071336,0.06909762006868364,-0.01840013970481806,0.004223077261431393,0.14815929043639983,0.14056976009588895,0.10566306406716991,0.036047780048201826,0.051153511418383375
131,0.077578996149356,0.013974922969863038,-0.055769575575651376,-0.04448823613966817,0.0686354527076404,-0.018066369467664222,-0.0014703642902718778,0.1499660660558208,0.1408920939882382,0.10139751975924001,0.028993146435326043,0.06062734033346428
132,0.08176952593079934,0.012121183968963488,-0.059256868591702906,-0.04499903033074921,0.07449165726767774,-0.016433927160386365,-0.0023530373996955055,0.1498993940711019,0.14455317745080226,0.1016551574594144,0.024410407736081163,0.06041463667679429
133,0.08365040318528147,0.016652742467738225,-0.057794706315674564,-0.047966774883612236,0.07902981319227703,-0.01937700945610567,-0.0020247335298040937,0.1517950572360191,0.1484100670648194,0.10720996728655789,0.025830210272300987,0.05953127340924158
134,0.09276125336396382,0.022067882102730134,-0.058621079772257126,-0.05610452714739088,0.07735448475424578,-0.015712681681860085,-0.003956507631383121,0.15900355853493728,0.15120248304294637,0.11492765371236985,0.03354296912244936,0.05926224065086173
135,0.10220415683061039,0.02294526642603647,-0.06111362981443577,-0.06325006904104101,0.07918966692438582,-0.017534354727434434,0.0005611648366244341,0.17107325658408445,0.15696075762621725,0.12418509932380487,0.04358491881311759,0.06555812815112277
136,0.09752880416609738,0.025668809208322874,-0.059906686147232775,-0.06124545986038055,0.07865880807730291,-0.012089259100520236,-0.0007796863452473029,0.1840178531815657,0.16514723623698102,0.1332869073177444,0.05153260515294975,0.07252461392413018
137,0.09500755805006504,0.012949159645844763,-0.062187001688085164,-0.04994296265425535,0.07515622585721081,-0.019506409304636825,-0.0027817122171565362,0.19276641914047932,0.16917502227710568,0.1321479077672443,0.05396746324885725,0.07284731326683763
138,0.08610673937935535,0.010929046237136277,-0.06725482739109503,-0.04697313919072058,0.07978569227344924,-0.026251414543517274,-0.007155762886562276,0.19638210557240854,0.1685152411344387,0.13004291053893535,0.05250016899923117,0.0705787916144878
139,0.09515155038560204,0.01689576334598812,-0.07080234735162816,-0.054713616279838985,0.08430967279241407,-0.025869105025351724,-0.01322757837844261,0.19797060298455585,0.16958324958484663,0.13148306024051523,0.05281504995530604,0.06902136591025834
140,0.10261715553825235,0.023944086639295533,-0.07074408797998813,-0.0622083511183094,0.08488560700729234,-0.023317651364858537,-0.012390472890091287,0.19921760696228527,0.17573044047773403,0.13635664035243755,0.056907091838225794,0.07536011281538676
141,0.1029503247731377,0.029250068122964577,-0.06754098726091337,-0.06479015586209508,0.09245644533385847,-0.01862490687973115,-0.010220220865709468,0.20112156721984387,0.18357209775113936,0.14004398540351076,0.061967161891423525,0.07477408425107186
142,0.10190845536005302,0.028482109429598244,-0.07133082328991623,-0.060715175952614955,0.08882939691701636,-0.015841756128677272,-0.013125311612441097,0.20671837071700425,0.19177228778269526,0.14499335360234544,0.0666636277989793,0.07530281539441946
143,0.09995853673268826,0.024266740109817497,-0.07468096033079141,-0.05777575427629027,0.08921726387568973,-0.023301849642911397,-0.0141489745772215,0.21712881828383843,0.19827878636586535,0.15242321680696846,0.07187720354593634,0.08401292764305582
144,0.10325711333148249,0.023585911871560082,-0.08418702277871426,-0.06026257627150696,0.09947387903221683,-0.027083371337315885,-0.01592080799627493,0.22891689148518596,0.20234495656124124,0.15897250128936857,0.07769379437743758,0.08973763176316582
145,0.11047931519292795,0.026491619626541348,-0.09079673746863884,-0.06546405379379902,0.10261133899361388,-0.02916845599870984,-0.01753459053586127,0.23719358594574788,0.20447521333755955,0.16349144728500475,0.08360914040478966,0.0913663611469035
146,0.1229461551350933,0.026310968304516957,-0.09368005107987304,-0.07167462972740582,0.11032365346482084,-0.03302512876840787,-0.020551401313833567,0.24560756981779638,0.21388193306045689,0.16786173791198097,0.08924724841884984,0.09033876590963505
147,0.12782611231583696,0.0245921194893345,-0.09360676712844625,-0.07595263334785594,0.11544515616939867,-0.032238847155980146,-0.02405627147313759,0.25463158148432874,0.22078404197418908,0.1730027330481331,0.09500903650188836,0.09179879470207117
148,0.13489569388038075,0.03182142030168574,-0.09488240808034296,-0.08251897194160787,0.1242782509358562,-0.026682600347685326,-0.023372524712383862,0.26693818936511005,0.22667321064654247,0.17807225248340036,0.10118312994312673,0.09870256965772084
149,0.14256344216445027,0.04141793413899686,-0.10120214157684329,-0.08771031835559384,0.12847892022661045,-0.02257785922749944,-0.02634871307394051,0.27377614941484035,0.23374944775773604,0.18545798897853044,0.1051763061862383,0.1043776542586663
150,0.14649470465325168,0.037689928068891085,-0.106652026537785,-0.09078227577511529,0.12601998384985794,-0.024148443957782623,-0.03099091663424549,0.2781551439100639,0.24074957450129816,0.18556391649453957,0.10555841226334917,0.10368488028064335
151,0.1578098291085555,0.04288770328312988,-0.1051050470326442,-0.09957100037736583,0.13763811572862372,-0.029584639665889277,-0.035708326094557985,0.281158151277792,0.2453845342270974,0.1863715298473302,0.10677290907953502,0.10343811396112593
152,0.16445350050201823,0.046182078671935634,-0.10938718534013653,-0.10232199671509634,0.14613083310298067,-0.032487415818891086,-0.03693442021397107,0.2880202094498558,0.2543345860878457,0.18819498076602031,0.11187557953639429,0.11205320713596212
153,0.1806580445224079,0.04300517083897216,-0.12479316777754548,-0.11098350932658163,0.15657380807617466,-0.04059870813180108,-0.03797822694276849,0.29848281785902525,0.263509598682746,0.1911899623639441,0.1175371207693097,0.12212178682972888
154,0.18758601527625013,0.04443210133212186,-0.13139831877760016,-0.11534345220369902,0.15764907421034463,-0.04364746011999944,-0.04520167332262804,0.30858222047567613,0.26344833394064876,0.19369685949776977,0.12145215902235736,0.12712425833967528
155,0.1846446255342929,0.048553066840671566,-0.12863811900563554,-0.11528880560152613,0.157777306202395,-0.03728125320882526,-0.048740022881838166,0.3139876562813412,0.2654069312748787,0.20208458509876645,0.12574838737114086,0.1315312581302049
156,0.17305950027103215,0.049893381788682675,-0.12854171688702332,-0.10939281021229691,0.15094467337087278,-0.0328470220831505,-0.05324505001327155,0.3192028767326255,0.27186410451843684,0.21268316655254935,0.13133495669216713,0.13924197524654425
157,0.16692999732497144,0.04662525362042168,-0.13702967326570573,-0.10193513017981076,0.15407679837038324,-0.037656106560224376,-0.056844836798188546,0.3255283787512628,0.2780765626913946,0.2167369150519184,0.13626774147592544,0.14486719345205762
158,0.1730494305434709,0.04407081100248153,-0.14528691411817912,-0.10199354751820164,0.16126513540586968,-0.04305247265205259,-0.06183331168969407,0.3318576563074334,0.2821491986593969,0.21676056438591024,0.14021742746112426,0.15151972242943323
159,0.1880511896579014,0.049066507486524094,-0.14953306869161678,-0.1149829464623307,0.16958092144885029,-0.04342791885739125,-0.06553055920666194,0.3384654640742246,0.28760209801182035,0.21990884598750754,0.14514986417380832,0.15823989788122755
160,0.19983539137660017,0.054355620636472396,-0.14431174486215742,-0.12568189804628363,0.17530531980268554,-0.041161286038059325,-0.062443949005591026,0.34600873638140517,0.29707203392049397,0.22977790392186448,0.15563271269593562,0.16345985079496558
161,0.2011147674784705,0.061075901949655675,-0.1431285207900387,-0.12982236975046818,0.17228850299101214,-0.03792842643896016,-0.06274446932753107,0.35429870165856037,0.30795243605991174,0.23553119910576076,0.1623524079781663,0.16821390875534425
162,0.20129792645911482,0.062127698195742834,-0.14452455905862557,-0.1276378434500143,0.17552057647767863,-0.03558908064136701,-0.0654294492754721,0.36284240243671967,0.31386231833217815,0.24102533324094394,0.1678813669019283,0.17002406789777877
163,0.21077738801722246,0.05978626812402464,-0.1497127436647377,-0.130952882301229,0.18017430139458532,-0.03471011613791927,-0.07134301891040437,0.36961351601217396,0.31245509391502657,0.24721942982391026,0.17474127853656202,0.1711880451799536
164,0.22167400313867136,0.060451214251867405,-0.15819333533105512,-0.14105778017884296,0.1893730792898917,-0.04073098516487991,-0.07906283374738451,0.3717806726555396,0.31030958079224846,0.24992547774525023,0.1734593867061828,0.1725956762740552
165,0.24475035966691616,0.06365823004020844,-0.1671765422629721,-0.1533026596906814,0.2067768458720195,-0.047884565437597434,-0.08139003482984802,0.3700114791070943,0.313696927778935,0.25204187678621265,0.17700385183356798,0.17288283100370705
166,0.2539123877050888,0.06689565600314595,-0.1667091914100623,-0.16070570272026646,0.21162641364776524,-0.0511007528287582,-0.08281779688554668,0.3673678332493289,0.31827042569256436,0.25057600221852266,0.18407573296200902,0.17959365069583288
167,0.24653186190188386,0.06621967193338901,-0.17032467835319962,-0.1524158977552762,0.21249066912308615,-0.04504313704056054,-0.08496960590457,0.36465285612526277,0.3169349261812955,0.2503715849515773,0.1849868522372622,0.18540551730736085
168,0.24405331099532546,0.0649696480232724,-0.16910066390480485,-0.15442224313307906,0.21255295244416983,-0.0490397955031381,-0.08485141512013492,0.362550067229396,0.3128577334703809,0.24994021360693552,0.1856995477573082,0.1901392961544558
169,0.24470593235567895,0.07088355578212358,-0.1684679806068181,-0.1563301140522373,0.20497674657640377,-0.049879387625822516,-0.08767266359105307,0.3634941481725088,0.3139930659014196,0.25208454710333983,0.18687363395192286,0.1936134737437386
170,0.2416576268759139,0.07223253525983184,-0.16579771504551688,-0.15833256153214098,0.202703074249867,-0.04662064404118685,-0.08845378208927362,0.3662187052628581,0.3191821288858742,0.2530149381958039,0.1909617846834607,0.19380971865163196
171,0.24926408465850897,0.07273289537781243,-0.1707869675341154,-0.15883384046150226,0.21212248917135682,-0.04425396330051289,-0.09195496321128442,0.36533592081955085,0.3199482435196527,0.257849404227813,0.19376822084282053,0.19779765583009423
172,0.2558577753015351,0.0759421586115217,-0.180598112792556,-0.16607712819479242,0.2178450543520806,-0.04572358311464332,-0.10313944596346332,0.35913281239366335,0.31520825895473803,0.25853099513855776,0.1928821427385242,0.2040807687865387
173,0.2592520750809,0.08411645440110369,-0.17936864194257857,-0.171587491186875,0.22460563328083788,-0.0468394009225388,-0.10632778962796315,0.3520110862864364,0.3105787583848706,0.2544961064656565,0.19127697140039132,0.209268752954463
174,0.2626501925573336,0.08968436623675297,-0.1700985609764169,-0.17435652579931502,0.2200125765734408,-0.0455815301718637,-0.10828347258795727,0.34850367130918297,0.30228253797391946,0.25458728284558246,0.1933251899513974,0.20997996797133417
175,0.25928138676070733,0.08695149337752281,-0.16956644281352415,-0.1710599545158464,0.2205123797897695,-0.044903132459992515,-0.10870302547046688,0.34782530658733235,0.29449062414064386,0.2569468637028468,0.19284903851528373,0.20653043166272622
176,0.2535061534149874,0.0830645919878997,-0.17098074229139404,-0.1654823374890256,0.21871370396749806,-0.04216217006581263,-0.10986468718384881,0.34514610806581214,0.28952974555193056,0.25887297943256715,0.18910304904212072,0.2056651944373712
177,0.25062784435567165,0.08704981409538978,-0.16657994757478423,-0.16413282885323743,0.2154114331333839,-0.03423529678432571,-0.10861630046626708,0.3376486560859147,0.28586964689545585,0.25544271236340055,0.18860050519233768,0.21147484715057235
178,0.24697652283114013,0.08983678958486656,-0.1588048223111076,-0.16766336026428186,0.20798392852270087,-0.03258834601071742,-0.10872481584453345,0.3273741206337948,0.2830139403913394,0.24987148024426914,0.1913427246284543,0.20986227260256485
179,0.25154365669193196,0.0971269943876816,-0.15965493846897857,-0.17508692534441206,0.20696749795720187,-0.02980969420605705,-0.10818298667498732,0.3183807210050326,0.2772100071528576,0.2442149492765029,0.19040644965819561,0.20364019511151002
180,0.2572810239696211,0.09663401802192972,-0.16134593024989774,-0.1742517304996668,0.21057016192624908,-0.03559008722883264,-0.10590211760920666,0.31261953519262065,0.26990302487730616,0.235456670824291,0.1862032422973843,0.19598792034024953
181,0.2518547551432059,0.09001552985106287,-0.1570591964449775,-0.17110515607288124,0.20824436107097496,-0.037183734494433435,-0.1032876442030819,0.3069234877075734,0.26558218990592375,0.2251424693199567,0.18263767350849264,0.1892788845432894
182,0.23489556824127217,0.08331944250403732,-0.14758710690310756,-0.15998485435725546,0.1912884660429327,-0.031195757664305643,-0.09994874969031917,0.29548966990679904,0.26168499111618654,0.22152262784566698,0.17727282148749973,0.18743038934225215
183,0.22820762644586742,0.09064846689541395,-0.13078008463218993,-0.15819440527533177,0.18117723703856503,-0.020189195098294643,-0.09727328635104521,0.27827946900133954,0.2532615277042142,0.21768781972705525,0.17600211895279128,0.187436775532692
184,0.22809189136093067,0.09224970964298101,-0.12513808737139515,-0.15992037475360582,0.17871195244120763,-0.018469718411827485,-0.09437677457130489,0.26241470324957494,0.2425149932852265,0.21508868024092226,0.17587062410829452,0.187639808869933
185,0.21513329686878058,0.08405752364279348,-0.11358703219110974,-0.151179355459555,0.16645712760498982,-0.014410843542504383,-0.09180743604660227,0.25287264719609026,0.23352221403088375,0.21136522007807235,0.17260133955715973,0.18507038903951983
186,0.20423664718127515,0.08004425778044205,-0.10990507805702834,-0.14682546863719856,0.15750788713618996,-0.01664003095651963,-0.09135212687905794,0.24667351371043514,0.22493286879417024,0.20572358478389258,0.1684432649188109,0.17790126875732654
187,0.19826726250558735,0.0809708221789919,-0.10614451096783717,-0.1410026946647017,0.15278163768156422,-0.01876955241580447,-0.08682224652453388,0.23749099468092205,0.21403792509373998,0.19992902143379848,0.16232742275381984,0.16823389115861836
188,0.1888484306017201,0.0780041438640716,-0.10389057777486112,-0.13358805508825078,0.1435856867249511,-0.013260859452226683,-0.07863594504371782,0.22352921256388056,0.2025360844277778,0.1939053460868176,0.15454725064026714,0.16016606476954381
189,0.1786797290902576,0.07647301842049967,-0.09569666007408159,-0.1284989371115205,0.13573042449487754,-0.005244131057613313,-0.06890005762855425,0.20809546240053292,0.19411635224583534,0.18570245368083516,0.14610646646323588,0.1551662801706701
190,0.16944730868637492,0.07636053839207813,-0.07736764062628848,-0.12491651595708353,0.12023567811914407,-0.002720583367613944,-0.06132445821331374,0.19239838729604064,0.18943571505303786,0.17499617764821684,0.13396837750534688,0.15108271223175704
191,0.15417803464903201,0.07209755201124204,-0.07641057152784432,-0.11768050029034105,0.11789974474439133,-0.001277284670127385,-0.05933183789478419,0.17495279412473402,0.17772840686090433,0.1653467711436865,0.12581397804290462,0.14546069860465127
192,0.1377947946831903,0.06840627892036658,-0.06971504217760004,-0.10771635089429832,0.10566858578341584,0.0025545224040549527,-0.05998036831884351,0.1581984936855375,0.16640526505983566,0.15607024188838498,0.12045131911825854,0.1398322119925343
193,0.1302866649527396,0.06940551630478936,-0.060344920399120525,-0.10355327041120185,0.0914197904312014,0.006966489302486544,-0.054544556245029935,0.14541910230934296,0.15955580081448412,0.1461887618178201,0.11617586004867582,0.13406499803951638
194,0.12579324052135735,0.0708050842400278,-0.04803704671718097,-0.10179680387024323,0.08273160255892881,0.009752345325904282,-0.04445605788235965,0.134207126870677,0.15129685984461522,0.14168795059931805,0.11184862152973016,0.12939059929360613
195,0.11007867200209948,0.06584734697421057,-0.03967511632208213,-0.089895756931752,0.07711559686152528,0.010554572590832893,-0.037343493924203296,0.12210129223485555,0.14036468266388544,0.1341431902072455,0.10494579666630383,0.12539188387549485
196,0.10486571779064813,0.05581446400044536,-0.036552234468352686,-0.08340686279857928,0.07117565100967561,0.010167597890225458,-0.036597033767594725,0.11116789998275453,0.12856307574657044,0.12383960079871326,0.09540380067253018,0.11404528076232112
197,0.09622629887933262,0.04939163520908447,-0.03273883561720223,-0.07150466383228234,0.06373483168237465,0.010934387269101726,-0.03806373136279291,0.10220783388735069,0.11687204745292609,0.11448217085338033,0.08207577613579534,0.10151634570375746
198,0.08874807938984239,0.05171968617940377,-0.026395860073351898,-0.06859369134452437,0.058256116720306936,0.013321325672296115,-0.037847627600447506,0.09344104856203923,0.10299625193075682,0.10613627102073755,0.07285524350705017,0.09362285476157964
199,0.07335635610833144,0.04694892601121746,-0.018953990409128308,-0.06117510216313621,0.048252136333774516,0.015871924281231638,-0.03344983618329847,0.08488226573257138,0.09102286394825064,0.10299029420510479,0.06507835447248408,0.09073299350450695
200,0.06306387537874576,0.04376619185510939,-0.01380543219919731,-0.058901637608032534,0.03440231206811217,0.014604823129236288,-0.02616271456960543,0.07707544027039245,0.08599441901334724,0.10297991060081679,0.06321438078508256,0.0861585943974584
201,0.057397220240295435,0.040649545977395125,-0.006091676257121188,-0.05169347180835813,0.028930161077405717,0.015065920763045162,-0.020437645527861332,0.06823219492699494,0.0794255585992153,0.09751674741423459,0.06114375064353336,0.07615280876662132
202,0.05565453693952669,0.030772631861169526,-0.0025464218611112414,-0.04420030728499577,0.025280358716103728,0.015673301480340983,-0.017289110728801266,0.057304152926996574,0.07262515651856645,0.08731649341619072,0.056969585848618054,0.06540101278098504
203,0.035086582072596614,0.03126131201235347,-0.009783822697839993,-0.03513631692585148,0.02753055124887293,0.013826078783121708,-0.014682814831507799,0.04714363391520677,0.06645923576253526,0.07722023299585781,0.04884422953094969,0.05455911430053323
204,0.038991319146578066,0.031112920411242865,-0.010443489994102984,-0.031259243652976866,0.03189653217746943,0.014542914454859014,-0.01336295913800728,0.04120408474583585,0.06221732743905743,0.07132410544565596,0.041695188061250124,0.04622447401108866
205,0.041925073502674416,0.032111577993117084,-0.0017131742175059504,-0.029479878527587024,0.026391992287609835,0.017746220666283518,-0.011534373402679009,0.03923625424424422,0.0609097228656974,0.06651950718812058,0.03622395074001651,0.042369782410363155
206,0.03311581521300594,0.029145185732447135,0.00280950490489279,-0.02676569229634664,0.020140415038839142,0.017705365188353337,-0.007071749038848311,0.037181575327782,0.05956040285664903,0.06560245081043023,0.0335132917587149,0.04276478653406406
207,0.026755735178920843,0.02576373753523984,0.001905128988326215,-0.021490600127739058,0.017400347415526714,0.014193883522455396,-0.0047939457667646465,0.030013294176022748,0.05261120361028576,0.06338415785030363,0.03167292441222265,0.043841115783625643
208,0.022412103977121626,0.0233723123980471,-0.000661337079800154,-0.01946910670185813,0.0172078928525798,0.01669643943787268,-0.003133971763337442,0.017855623241395256,0.04048697805445631,0.056607650828994556,0.02734824332609688,0.04138895621432888
209,0.021444140495959538,0.023529438241277876,-0.0013912501580098432,-0.019691511256572487,0.018291669775358357,0.011582449976288921,-0.001574913138182317,0.007688855082929269,0.03119978974601815,0.05069937106081457,0.023477970544634026,0.037178022563783136
210,0.017493224270770664,0.019909075749435776,0.007878457067281703,-0.012496071052732713,0.00510027651582377,0.016316846365354135,8.326850871525487e-05,0.003526901542084883,0.026743598449823006,0.04920055015356126,0.023582725611351295,0.034532393516889984
211,0.005555615530583889,0.011243702213037873,0.018423447051350114,0.0006648939388381597,-0.004745327432830571,0.020965698675449798,0.0021999261994536355,0.001187633698020097,0.023224831829695786,0.04677900340921549,0.02208194418652313,0.030090477230182322
212,0.003947726533374798,0.006188525686029458,0.024527952735278413,0.0026121002828406476,-0.004097991102981844,0.023212175695418565,0.003322593258841263,-0.0029016388335350585,0.023642892792601573,0.040287609242193836,0.01326739038847622,0.02114932449093324
213,0.009672875680865138,0.009462241226780011,0.02005701573310458,-0.0029879638283435896,-0.004190734585777123,0.01783175017714039,0.0028318264364910663,-0.006795022066130727,0.02120437017560838,0.03502022248830088,0.001613644072828129,0.011293514402224248
214,0.013235295046675049,0.00453021128144726,0.010358585344619572,-0.004958421061542682,0.003554263223881443,0.008665130218832926,0.0023079189769434107,-0.009006105284832717,0.017640253693515878,0.032919610510748334,-0.0046316991523896985,0.008632498050890901
215,0.014246018114460891,0.0029253265159124376,0.002945051354271609,-0.007049882752774756,0.007667082313232907,0.0014921537283814693,0.00024575265210833273,-0.01090595008039694,0.019800180583624497,0.029088552115682516,-0.009461484884735786,0.006375376729287365
216,0.010863864083375696,0.0032581528516583682,0.007450170438246917,-0.0024616886226249603,0.008653057339684394,0.0063789013010694395,-0.004468413730019461,-0.012767521109465892,0.020274079745166332,0.02453814160883749,-0.008992348321523323,0.002919517018189731
217,0.004809882987433189,0.002572348584775565,0.0119527162808859,0.0027834494563888385,-0.0021332379399888607,0.009718064210859093,-0.007554950063780569,-0.0141174107636267,0.01726596429459064,0.023566040611324588,-0.0070059511306853565,0.0036443854294036567
218,0.00625278676005743,0.004495305199277571,0.011252155372013802,-0.003530022194160551,-0.0024502000379413857,0.010779237480059446,-0.004270209100576944,-0.015728366694470135,0.018022105885620435,0.025271568992618235,-0.006628568838458492,0.008101201719539519
219,0.00045340177259628467,0.0069475442695472334,0.011356254183056892,-0.0050175595101416455,-0.0018908002275262702,0.009589842083475957,-0.00016862841572535398,-0.01675802894352119,0.016575439156491435,0.026597010667579173,-0.0047910400563151295,0.011603393191081321
220,-0.0010392083703175126,0.006111914545748087,0.008677505073441383,0.0016731293243522107,-0.00027063195075595,0.00845784053132429,0.0011789273073873827,-0.015976628769835174,0.01742113146001311,0.026261297660365973,-0.0005076579533212812,0.00822055544228403
221,-0.001623575029916089,0.0025944064582520184,0.01566817303014361,0.002569351916175803,-0.0053916760700302435,0.011789078290462884,0.0014875094895233504,-0.017038980229699168,0.016766173399674286,0.020565685376015812,0.0010309894033301813,0.0021519282256414335
222,0.002665217531724523,0.00426418482681395,0.019676113622123705,-0.003664892611808173,-0.00735397633768807,0.01680619369665752,0.0017895751076820836,-0.02437937431395179,0.01424821593617345,0.019264156554874505,-0.0038604871248405746,-0.003548671902328878
223,-0.0063069110276122685,0.01003694750748473,0.019125314057051427,-0.0018981933864292595,-0.014527063203741176,0.017510537232699623,0.004365196142874891,-0.03459759617190025,0.009160521081849572,0.01793231636156859,-0.012042243236447332,-0.007547489846917679
224,-0.010550684731507918,0.009839023580444785,0.016423877136861845,0.002939357352279171,-0.007448540948167746,0.011645760461207617,0.004429075943064091,-0.03631909766770427,0.002286026415748821,0.01706869943556929,-0.017587610991510422,-0.007961144981228744
225,-0.003925400586724671,0.00693127104279332,0.011343114138572488,0.0012671691568390975,-0.01023509048108965,0.006737030212330627,0.002326335042029332,-0.033097266824703604,-5.422883553047979e-05,0.013498925821855412,-0.014795016221181841,-0.004083192081802276
226,-0.0021538208213964585,0.006631687112423997,0.003448799930446802,-0.0010785441195733502,-0.0058699474941940645,0.004119465560940706,9.313264343089288e-05,-0.02833894874441424,0.0034627713352571553,0.012045021741923147,-0.011470954911964999,0.0007637632694989099
227,-0.00037425026339794887,0.008331644335984892,0.0011409641976736044,-0.001073246609907489,0.001985151258507036,0.003464863012210129,-0.0009422435058145384,-0.027893267801539418,0.005214562894428992,0.011730596341885667,-0.011556617077955928,0.0017322587158073027
228,0.0018986683363637173,0.005651393385938132,0.0032294243884715725,-0.0019821616472351818,3.143083535779925e-05,0.006963633766505358,-0.0013557169557821096,-0.031019353284481195,0.0015321430912513048,0.01340272475745391,-0.013627753630121066,-0.0011413150578553008
229,0.0009105217943030826,0.0006429409319664346,0.003563882312963857,-0.0009596071483370505,0.0019451273016884048,0.0030808961269195457,-0.00530328506168119,-0.03240541786264333,-0.0023868700754773563,0.018645033823399104,-0.01288743269302111,-0.004484944811346939
230,-0.0071890761032895635,-0.00182529463446062,0.005096608091534404,0.004859110722063511,-0.004251856425832031,0.004271759046514938,-0.0048454445579405835,-0.028464057438897496,-0.0017269391116503472,0.024958805433341114,-0.008287013344171314,-0.006799095184337373
231,-0.014008293976880675,-0.00015324379432577829,0.011451904710917369,0.010859119391481813,-0.0053507554962501196,0.006512548390469943,0.0005154679492804376,-0.02098483277420431,0.001909004253791112,0.027237105383475964,-0.0037126993417133294,-0.007814959676039755
232,-0.013273042963663537,0.005799256343596137,0.014687375317026945,0.007181337322987072,-0.007380677480783089,0.011995409828620456,0.004253629566601384,-0.01499360943513096,0.004921996415905827,0.028955234268543455,0.0019159571242944266,-0.005840373306749868
233,-0.007234873008606282,0.006357168083290111,0.012022410255747296,0.005725046267326714,-0.012310241890258335,0.009849201788788871,0.0063011130851866395,-0.01375068889230718,0.007272100730487263,0.029230489316333118,0.004075037509210777,-0.0014620399646234784
234,-0.005585466348004185,0.008182271896894949,0.00902626504313066,0.0005863988640840163,-0.010922260308426225,0.008003388674283808,0.005849187183768404,-0.017171492646477115,0.010502529833437694,0.02575528404512149,0.0013368087162609352,0.0007440557306402206
235,-0.011194464362434601,0.003087775900852723,0.0033199476298711034,0.006757476020061664,-0.01212452520066018,0.005187738658029236,0.004984314424304135,-0.02284979656607717,0.013114023875950696,0.021313158247186673,-0.005335347698308472,0.00012182511162515952
236,-0.014489193378951874,-0.0026282727689459417,-0.0010439772087807112,0.011951995555331899,-0.005798100379123584,0.0029594540641765367,0.003212711758122832,-0.027177507222904164,0.01126132564198098,0.01868279364351816,-0.010602978158170611,0.0013960082298334238
237,-0.0021147653704819518,-0.0015622159885009604,0.0020810748588034333,0.002882882694840834,-0.005335943045468437,0.0026118793564297565,-0.00046323327161057297,-0.028478560556597386,0.004441713944685788,0.018013502328061478,-0.007842418104892179,0.0016379909174888824
238,-0.001420522355222751,-0.007488815872594595,0.008710880205581879,0.007456839873533728,-0.0024421640456175793,0.0034421149802996345,-0.005443849982079329,-0.028142394094200385,-0.001902561705269059,0.019246836089471437,-0.004109549986408001,-0.0009482699378242261
239,-0.010407713167081098,-0.002290222227156697,0.005812292947104929,0.008287117986491248,-0.0020159525985491006,0.003893778268547278,-0.006215968239006049,-0.027894549566211374,-0.002315705776276617,0.02057431394049644,-0.0024294809247082886,-0.002259264105763865
240,-0.000700050864453395,0.0010051571704922952,0.005708175904871285,0.0011574874329366922,-0.0019294748422637314,0.007064762099541773,-0.002475614954834624,-0.028301941768946695,0.0025382455929425663,0.017782679747082666,-0.003829280061926685,-0.003900108474928745
241,-0.01290120110642421,-0.0024951054335628866,0.004222148259903521,0.0056887871750415046,-0.003981745023474467,0.0035167948989634195,0.0025659190099450845,-0.02810583343584217,0.0076115787161652754,0.012993889976887909,-0.008338384426745539,-0.007123077195954338
242,-0.012120109799805594,-0.009518685044583471,0.003071488267375317,0.008132479854218876,-0.002368609094637243,-0.00022447640979646449,0.0030857105628206167,-0.024909985761432954,0.00858645396289614,0.00805186810761899,-0.01280137063724538,-0.00954866773070668
