idx,I,II,III,aVR,aVL,aVF,V1,V2,V3,V4,V5,V6
0,-0.01521526282255789,-0.022169964669693364,-0.00048371864296782325,0.02549904932065897,-0.012910033091340697,-0.013201809180819098,-0.06379933290874051,0.011242603586397032,0.0002816705477099307,0.011769953391762724,0.0018120011483198084,0.0233721587409298
1,-0.015466781214118711,-0.017943553986085065,-0.0016291992131624517,0.017918386824142266,-0.011045482624555274,-0.01307557775855825,-0.06840415212870848,0.015644209152985714,0.0022695189990101436,0.016535338078980336,0.016099681939540117,0.024781443675649488
2,-0.018288724214153288,-0.018952690950039305,0.00033109641356193157,0.017321488913745693,-0.012694478007346816,-0.011125496743280238,-0.06735016176148279,0.021054939641931225,0.005466782651411359,0.016965960592113923,0.02061826387467435,0.020365220771697355
3,-0.027134511420679713,-0.023682720193647176,0.0018103384594959577,0.025927896459811025,-0.01879303598437451,-0.003494655087225747,-0.0680190330855322,0.020399892715361877,0.003773791752474505,0.01644355854126902,0.02524869807495664,0.017336984113580402
4,-0.032681181815377824,-0.03455051869068441,0.002572991774218587,0.031246841578894638,-0.02179409645733808,-0.005920145077745446,-0.07093710708537634,0.014959820511966253,-8.546671810852335e-05,0.016599538522349876,0.02745052761303013,0.02096129913219153
5,-0.02774179156598545,-0.03886454242601421,0.002360484139511834,0.029690175565932012,-0.018631200600019462,-0.004747776661880043,-0.07329957803328208,0.012805537622943952,-0.00234654306055207,0.016145354951654686,0.024745424402363728,0.021073583911250533
6,-0.023694231576478493,-0.02823068672817247,-0.0010735185905965654,0.025646653584676923,-0.012959738167666305,-0.005769814937339899,-0.07527510165081619,0.016050255916591066,-0.0030068375490613364,0.015248273325287096,0.019089585669828303,0.016983793415579904
7,-0.022036054582713314,-0.02565832082882408,-0.004132299444392751,0.022389077734264795,-0.016048794715549274,-0.011944031071828166,-0.06911100718980971,0.01994328916598942,-0.001402714066553984,0.011758340285849682,0.014913346782571783,0.015062588823016757
8,-0.022303333696542433,-0.03234322669686544,-0.007189260409080736,0.029440991342221952,-0.012328405206005618,-0.015626234100520626,-0.0682863573698154,0.02036460979497435,0.0011176591807103217,0.014158805178384054,0.01307527621445713,0.012443022145545136
9,-0.0291553102429468,-0.037655159868403204,-0.005240630056140445,0.0356469130286152,-0.01041372106825869,-0.01882988833358878,-0.06518197959063263,0.01690320626919778,0.002165218189044346,0.020036733849310262,0.010661715518801719,0.01729449374298654
10,-0.022477037892084096,-0.03757799448758567,-0.000286324100833092,0.03076420799676669,-0.009105506379184922,-0.014498925411223603,-0.0629479743566072,0.013065732649432477,0.00312548405737257,0.023334858551841843,0.00727568746536221,0.02274216750330705
11,-0.034855821478713384,-0.036668566795070315,-0.0029670994996274106,0.035124204720943124,-0.017933458104643932,-0.01115184380244616,-0.0616600319432156,0.012984916251438668,0.00642881498192957,0.02148893916153452,0.00721162396207993,0.02585028618926079
12,-0.03885302814267104,-0.030100103240988135,0.008823705136656337,0.034416839631598195,-0.026091801388829758,-0.003403085108989822,-0.055053113713073185,0.015678388326516197,0.008242990134067221,0.017855152091015146,0.013738197111920099,0.026888656217726903
13,-0.035856305257021714,-0.02459045939824661,0.011529116987995056,0.03690541518694355,-0.02209578515136005,-0.0015558018700719887,-0.052890673955700476,0.017286268557485655,0.007998945235012815,0.015423463479598621,0.02283733586486593,0.023367172359137954
14,-0.02652719888131935,-0.03633380257803066,-0.00026463206611141137,0.02968282326623516,-0.015119776056378188,-0.012765150650802784,-0.055320451522419406,0.010360658896271052,0.0037704718948302768,0.01205746312603585,0.02541585616430473,0.02479916341824726
15,-0.023547346962577997,-0.038982612682235546,-0.010846880783855537,0.03226960231557448,-0.009390321469690469,-0.02108326681152839,-0.05532274617355481,0.009204652210760632,0.004596648277030602,0.012925368294445006,0.02795411995045404,0.029585390621054385
16,-0.024160734098228172,-0.0343552448948055,-0.013540766531732732,0.031146610175168673,-0.009983673337759635,-0.01693353971101196,-0.0500939397798771,0.00814785551519595,0.010821712693039554,0.01769568844231785,0.034833890325678185,0.03419029361471759
17,-0.03131316640478592,-0.029323926552109622,-0.009421324651572808,0.029008659600859202,-0.01943734570938914,-0.008899932475852709,-0.04571714302536484,0.005476705023817842,0.011609559396296758,0.018622169534025203,0.0406351694429839,0.03424988165987246
18,-0.03411247582873369,-0.029193450951796228,-0.006828569970075637,0.031509128782764295,-0.023899433885383944,-0.008407772847684299,-0.048672924948175586,0.0032965027455713267,0.008337000550457739,0.020257445114470973,0.03698513537891246,0.03185516635691358
19,-0.034889285618799414,-0.02664795880230465,-0.002867904602771106,0.0373560766893198,-0.024842510156889014,-0.006897926709976137,-0.05522494980969176,0.00434355667558585,0.00039114922996388857,0.020627608356288005,0.03453317685567348,0.03235700194183558
20,-0.02797498373593302,-0.026747077673787423,-0.004520217337625422,0.03735653324875152,-0.02212193200977816,-0.006340302510845634,-0.05606310013028574,0.003503200547069228,-0.00025645217063889614,0.02309130567636041,0.03496817966441117,0.03595522684306558
21,-0.023322021926166992,-0.013621151756711341,-0.005490259600200995,0.022534695935035497,-0.016397002972027657,-0.008300208965642104,-0.05102860546208739,0.0024446214267031807,0.0031329396871802168,0.02707411521130272,0.04052415631692337,0.03957337998533098
22,-0.017960087012352518,-0.016994118127310824,-0.0013190161359911056,0.02051349477852778,-0.011168175015744925,-0.008440737491951008,-0.048326224896193544,0.0030981163780543566,0.0038603255691382413,0.029047988308555546,0.047624698396172165,0.042205678220422725
23,-0.018256935757841708,-0.024137839659356782,0.001714325446830053,0.020920430496487407,-0.01094101259169748,-0.005555820281874601,-0.050273917702116803,0.0060861061291723265,0.008525424297441075,0.02811768984318497,0.048047534014345,0.04398387424704044
24,-0.024920078962024795,-0.02639756544142174,0.0027625062150635994,0.02705948331655374,-0.016381152341762645,-0.015983519235253107,-0.04792284602605994,0.011803399086130283,0.013660064224172673,0.025062972929617094,0.045897152140312356,0.044874225188460286
25,-0.030266947841949936,-0.024240124870453513,0.0045557214358801675,0.03258604120361618,-0.02141854427532668,-0.013836332093036075,-0.042040970650914194,0.021329934803169692,0.019593854610470585,0.02550591545614157,0.04601426925242698,0.04518588547914747
26,-0.03282978192403825,-0.01530507779424729,0.009858094593179717,0.028594086053723433,-0.024115708181109596,0.0014393626949440446,-0.029873364301988434,0.0357189241833014,0.030203914484081835,0.025858380263806838,0.04220556578715446,0.04427479739509396
27,-0.04047593521832139,-0.011773691023304864,0.024006211343046674,0.029689006747113153,-0.03273958113178923,0.01212172271553836,-0.01565611726053602,0.053601223870181194,0.04927030836842871,0.02727579870913465,0.03504564788126642,0.041977606966738495
28,-0.052799594343973535,-0.011425312611673462,0.03100464728199706,0.03539109347755878,-0.04676730275922788,0.01640890401048066,-0.003124035502239733,0.07440595769656184,0.07051797057292333,0.03093147638962476,0.026381210546413143,0.03807212340590614
29,-0.061683531972986545,-0.010674716256108977,0.03208242489787516,0.039149429195795324,-0.050153032011723386,0.017112044224429503,0.012249795486741849,0.10147627675294671,0.10136173688933575,0.03749983368249347,0.01642255808416255,0.03294394415453322
30,-0.058186403717871614,-0.008134820168277138,0.04510070706859366,0.03731375343442434,-0.05054938109892663,0.021871050748318716,0.03182889409096644,0.1371896983238583,0.14419570744746926,0.04634068229798781,0.0069094243577790225,0.030306479079539678
31,-0.054253217067189434,-0.01117007044545167,0.05876490690187237,0.0246744276292288,-0.05700756983563617,0.026831489229667452,0.04954115065558107,0.1722697418046274,0.1914839828314574,0.07043077911544587,0.002462582663549897,0.02638583851472825
32,-0.060051399084857786,0.0026950290389699157,0.06987046670474678,0.026534159665914037,-0.07006600554330908,0.03781207316502886,0.06061596609317872,0.19437896392961412,0.22846513024510332,0.09168052521496839,-0.005705381551603543,0.01595293765739343
33,-0.07686801522450046,0.02645970598648254,0.09070931172450297,0.02652680137239499,-0.09496709348161961,0.06580415942547951,0.06729289152520644,0.19850936424561552,0.24515927974326607,0.1039842783974177,-0.016199304449407953,0.0012868529822391978
34,-0.09749419040642639,0.05037701327974052,0.14226340788169933,0.019079229344250527,-0.12527293396748304,0.10651063128843713,0.07783173693944863,0.1999273180487826,0.25572141507845375,0.11643623936458417,-0.021936477695944215,-0.007779989494424863
35,-0.11563886131801013,0.09076793638254381,0.1987206498269824,0.009553321724170859,-0.15335009164421956,0.15055399394404137,0.09918284818211635,0.21867771683523407,0.2842185698173713,0.14202557924767195,-0.023238457060328163,-0.008819942465260647
36,-0.1318261498951407,0.13922523848437257,0.2616144357741899,0.003932566241138909,-0.18851096261052014,0.19807807027446506,0.12112592404797383,0.25153908802181224,0.32040954748950723,0.179292380894707,-0.021631947914687942,-0.008735881872525844
37,-0.1418328618118484,0.1796467344026344,0.30976923401626055,-0.0169550218718528,-0.2248476931190042,0.24018808931690466,0.1204033841865512,0.2540456173379857,0.3525097217649765,0.22761607380681065,-0.014914908683980418,-0.010539925185964902
38,-0.12521697309019053,0.20824054912950937,0.34194161793289113,-0.04402012381740185,-0.23586474876585367,0.271911886483374,0.08743182990660525,0.21645974917982033,0.3854565174908605,0.2921180490333418,-0.005489528277976989,-0.00846741061984932
39,-0.10907012577910276,0.21418913775977702,0.3459383012380587,-0.0615237955010991,-0.23051048006205382,0.2799116887711679,0.04088711427940922,0.16321461142880198,0.41972715683514233,0.3685831343355692,0.04140695780191931,0.009466205054616643
40,-0.10626729073228182,0.22028073302988171,0.34742033481829115,-0.06566312754876444,-0.22705097045512768,0.29903736342072196,-0.014560677416894138,0.026536994602727564,0.398770137209178,0.44256190251532057,0.09350503150177708,0.04565715436909434
41,-0.10248313948593649,0.24099521314848232,0.36819907649961936,-0.07388630110992878,-0.23982076167349517,0.32299280311052203,-0.0821895747533547,-0.1575101282519337,0.29252334976555805,0.5052938773729313,0.14577754921719643,0.0866352952527387
42,-0.10632031845287007,0.2703755125040618,0.38995745496996226,-0.09182027988903331,-0.24943551209841602,0.34203885854818006,-0.15903403684711104,-0.39619838351306125,0.1338133377189108,0.5645367861050214,0.20092107451799188,0.13201744538434124
43,-0.09393376941184878,0.2976963663925575,0.40347481241335037,-0.0969130724685358,-0.24784505305543655,0.36285946134006397,-0.23795261464824038,-0.628958606074654,0.0009817118930541477,0.6363015122278037,0.2568957644024135,0.17469213577740883
44,-0.09218879551290107,0.31335103830598293,0.42269486710668613,-0.10783376313072564,-0.2533918898010986,0.38734566419119637,-0.3134476220321505,-0.860050241172793,-0.16451825002426032,0.7215639378128569,0.3165454232961322,0.2162473580608633
45,-0.09166950848025462,0.32342357601028476,0.44171439789348454,-0.10930216817525001,-0.2673348422212516,0.40867705199523063,-0.39093999145202946,-1.1485636548825076,-0.42229887177010955,0.7840363287459345,0.38180334294612084,0.26535006181810783
46,-0.09780135309426008,0.33014537544340017,0.45829521180782296,-0.12159936073257507,-0.28104816703719526,0.41561272601343896,-0.45511779790675394,-1.52125469696686,-0.8718510367204775,0.7722170069155274,0.4308746760359488,0.31541196737124255
47,-0.10695105542184602,0.3428913838302806,0.46448322846157586,-0.12570072772290208,-0.2855982409430983,0.41483143608887973,-0.4883972598897986,-1.826417741733445,-1.3357326464158972,0.6872739895684502,0.45693446217478206,0.35177984797860623
48,-0.10225794935368811,0.34243905541983655,0.45999688804512817,-0.13084388563560953,-0.2789329796558421,0.4081982347652777,-0.5159062579001721,-2.0284503177483595,-1.7338097442179037,0.5832807030853748,0.4916444011084553,0.38031025567633003
49,-0.09032016823563978,0.33961505601838926,0.45750939468812,-0.13451417941369215,-0.2792685331456367,0.409813882545296,-0.5505508151664373,-2.2575278524684776,-2.14588089665982,0.4573667729563857,0.5356609781309352,0.42277199635349005
50,-0.09428243052567485,0.36122235853486834,0.4899593160844766,-0.1456809839964343,-0.29492605269357475,0.42804419538016736,-0.6017520277631522,-2.577006225262871,-2.5866379739793874,0.3230403226255607,0.5835834309546846,0.48194736604653476
51,-0.09522294493458955,0.4047748339875044,0.5398151518014265,-0.1640182088268431,-0.3206700044118021,0.48524974554988987,-0.6421428900227876,-2.8939745513119473,-3.0254053948170787,0.1938008385656656,0.6321111913099888,0.5500095970285
52,-0.09728311477034238,0.4538576284617207,0.5865381336628397,-0.1843570882751694,-0.3440101302443671,0.5310307913857653,-0.6478789736149817,-3.1568196973466756,-3.4095735941270995,-0.008445847492314664,0.6940569714997111,0.6235539612382127
53,-0.09272296147658088,0.49665665334664943,0.6061615292458874,-0.19744706253620775,-0.34941071151328085,0.5570451550460516,-0.6952393491350883,-3.402172488110299,-3.702809150132376,-0.21375272181701105,0.7519654355402052,0.7069091544471358
54,-0.06946544393167992,0.497398922377243,0.5800121031634405,-0.2140722550380501,-0.3268505989755051,0.5410196770352929,-0.8031508867928749,-3.631944101760117,-3.904290873638712,-0.3258747083343384,0.8303667327240649,0.788611505546033
55,-0.01764852950022325,0.4760312462564381,0.5155714799895537,-0.23221456617108172,-0.2673547704244784,0.4857507546506597,-0.9489339105918204,-3.7984820256939273,-4.030952727340619,-0.37381375196590266,0.9311132967605719,0.8732408820660804
56,0.04473840472666919,0.44068342211713785,0.4189743383725194,-0.23560290501076298,-0.19442451335229854,0.42480616006502875,-1.1030227789027904,-3.8843724067903196,-4.114642884919245,-0.38740229639492796,1.0483644872566917,0.9616143110959174
57,0.09089056403863183,0.41261069156494345,0.3271734766892269,-0.23764280491306938,-0.12676313888121724,0.37184761489783047,-1.2591308833436015,-3.9380034924833867,-4.199282842848974,-0.36747453111786904,1.1680988572325697,1.0422018577344636
58,0.11733775063201826,0.37050435629572365,0.2667409495422316,-0.24382167951658426,-0.08801422007315471,0.32000094422847913,-1.4547959708423406,-4.032226243651656,-4.325114433282729,-0.379713620055661,1.257029446056087,1.093174149778355
59,0.13298287403069364,0.31307827377242964,0.19875012363264316,-0.2178722737036764,-0.05427438519128585,0.2543104343288151,-1.7040988771869938,-4.104782472932305,-4.441545413918729,-0.46240173377491733,1.27974576889531,1.1066746928926996
60,0.1499418140380801,0.25135966157538436,0.14097093302499158,-0.19582138859777004,-0.011441621585050053,0.18924428588873313,-1.9566345423151117,-4.152144814788235,-4.448586780993353,-0.5601317079697905,1.2655837821026565,1.0953214984732877
61,0.166481938553995,0.1845987125201685,0.07494050258105393,-0.17914232316942408,0.05276721502158737,0.12376656798969901,-2.124164921576218,-4.088763477655673,-4.327286601639183,-0.5941168853692702,1.2737122237725924,1.0872480181747837
62,0.19218358758061382,0.1146102979249227,-0.04403532086417936,-0.16255469262781727,0.11143317095744557,0.03580487413579554,-2.135422708345693,-3.9096803424033766,-4.144079676420406,-0.5856235866434719,1.3119677074363876,1.07747696002901
63,0.23659535274999585,0.03583338963828721,-0.17731177750113503,-0.14232301253931165,0.1956615999590218,-0.06384061047545267,-2.074335896490552,-3.682162433904132,-3.919564879825315,-0.566987238995061,1.3193075907876333,1.0557803054085368
64,0.2865646486726176,-0.033808258662260074,-0.3127946749009122,-0.12248541122386694,0.3001479482761792,-0.16853377001723835,-2.0102579536319687,-3.482846517474778,-3.6979440839187756,-0.5483668533249281,1.330380150445911,1.0242998975941442
65,0.3517776957851051,-0.08596245547766707,-0.43622708710082764,-0.12348876711410409,0.39826169301632736,-0.25204918287355255,-1.9757578531976132,-3.3133649804461296,-3.5197730282968136,-0.5474811743249312,1.3368287954210663,1.0010232454057175
66,0.4134370698362233,-0.11257128676813742,-0.5011386673355975,-0.1432719126903227,0.4681327462649101,-0.3112543472539453,-1.976659680254833,-3.2102509924778553,-3.3905930548588463,-0.6075987866900578,1.3180320689804406,0.9678441892908164
67,0.4506034269175463,-0.12474516248823009,-0.5537652887847714,-0.15204127233408932,0.5002625047153341,-0.33554772464528804,-2.006220325400958,-3.1532411085073497,-3.2833645403595066,-0.6854641727847746,1.2349186356220256,0.9010308873282852
68,0.47501939776301855,-0.13052445853937159,-0.593284974897859,-0.16151002642746087,0.5138451616678273,-0.34699021781021966,-2.025787378280486,-3.0863348749626187,-3.162374345209662,-0.7439725496592446,1.118996211354043,0.8103693694451758
69,0.48223085578913794,-0.10015824476557184,-0.5926369702562553,-0.18710286600279563,0.5221831336379772,-0.32377949872763734,-1.9851263412380415,-2.947745091915115,-2.977320686975399,-0.7818381776376014,1.0046722422480716,0.7304213119404268
70,0.5103367930006415,-0.041319201982527545,-0.5593170241887079,-0.2256825627516538,0.5118236083110622,-0.28050229280300654,-1.9199849331048977,-2.803637352783028,-2.8278551521144744,-0.8022888132372854,0.9290837069036323,0.6908537630310883
71,0.5156979249654485,0.015087418908086746,-0.5032638521824572,-0.25157874687620296,0.48551436663033876,-0.2293588717947081,-1.8608753264785922,-2.707959607465895,-2.7526557403773046,-0.7904600587748041,0.9032346780514833,0.6793440298662691
72,0.5297456678558607,0.026150989708510562,-0.4719392823275681,-0.2766800258711268,0.4839768980854304,-0.20367340389773486,-1.7928288897444467,-2.6121360913513776,-2.6438609826782185,-0.7480772648977945,0.9166634754881666,0.6647395764737858
73,0.5566689089725392,0.021807669865931346,-0.49688426328741986,-0.30311617571411464,0.5170360183109749,-0.23428992592546838,-1.7004895866892875,-2.481401506371297,-2.5291716314328543,-0.6856733427088154,0.9173889890451161,0.6503145421045601
74,0.6007641524369434,-0.005257664884992846,-0.573806331553044,-0.30119871796107633,0.5826591906239142,-0.303276828406571,-1.5891570288356496,-2.33261100398346,-2.3678639256549063,-0.5990322971916002,0.9533926379325997,0.6542573285126506
75,0.6406136613969209,-0.07530290745758575,-0.7048950286398827,-0.2791869073982951,0.6626533822566347,-0.3978747442740327,-1.4667521113413011,-2.1695089491398525,-2.217894810003365,-0.4830773160983518,1.0580454094830132,0.6856909094653432
76,0.6587423185326258,-0.17052829878717052,-0.8410919216183135,-0.23072058409533192,0.7388133642976691,-0.5035819727409989,-1.3290934661901421,-1.986322342729844,-2.067183362785655,-0.34556087058809914,1.233120048946215,0.7419685994720953
77,0.6622922216864411,-0.26052090727846927,-0.9457656141364699,-0.18630913423954226,0.8014615893447319,-0.6110653284108621,-1.1742938888695573,-1.7687539959036025,-1.878326210708853,-0.1992660512026648,1.4357426778380624,0.8152833358692553
78,0.6553216812413659,-0.3506315416078227,-1.0413616569557655,-0.1561437140501232,0.8422484201747455,-0.700834290534545,-1.0110113763189612,-1.5263364921623297,-1.6328632258037408,-0.04881987470327279,1.6179858401162455,0.9014979310803871
79,0.6540176461316896,-0.42134085295091717,-1.0865058410796054,-0.11843204830327514,0.8563767520841881,-0.7628422099826003,-0.8730769505371363,-1.3099715801713283,-1.3962764715689469,0.08635168895642686,1.742293906075979,0.9714838041044211
80,0.6434984165474973,-0.45136658127658424,-1.0727517581563837,-0.099982126970964,0.8566807717294391,-0.7671388817507286,-0.7782952588340366,-1.1446131744850756,-1.2064583248816665,0.17364081203138465,1.807917727270095,1.0014231252474375
81,0.6205773026573118,-0.42905545511154886,-1.0349160840184908,-0.10173747019831317,0.8251093184744889,-0.733499066712507,-0.7081673853441818,-1.0157004477761835,-1.070031392118565,0.22859454652637876,1.8067266882802038,0.9883195306361936
82,0.5865961341114773,-0.4012640154283563,-0.9826289236018235,-0.09757763840491063,0.7806354295411668,-0.7041464170616247,-0.6438102951815028,-0.9147744825956038,-0.9513877702675881,0.2692972694544218,1.746521828917862,0.9445029206051772
83,0.5676972178877218,-0.379190983783107,-0.9488490770356475,-0.0980808785963064,0.7499196617732768,-0.668852869314609,-0.5865033369588989,-0.8209502710135947,-0.8408547613891568,0.3099361803516352,1.6580188261341524,0.8771363486394173
84,0.5644660097738312,-0.3675446305504324,-0.9231562057076547,-0.09790882220032857,0.7332855131632554,-0.6347772329047412,-0.5388086253456563,-0.7283046293814526,-0.7337152150898874,0.3471568242404076,1.5600539914908844,0.7763937770363429
85,0.5518928199114677,-0.36296503318353057,-0.8829045557010002,-0.09297918606782568,0.7189449532020218,-0.6177654433048791,-0.4897650769100616,-0.6398551944500934,-0.62423705104356,0.3615104200745225,1.4198657279092823,0.6393995749181088
86,0.5268319427233874,-0.3469202665110637,-0.842599752277003,-0.0949969488928436,0.6820687593387094,-0.5948896343334109,-0.4321823398971155,-0.5546388857037239,-0.5253389509374451,0.33753243570904856,1.2419763322611201,0.484824444634177
87,0.46495926824604394,-0.3400454890653125,-0.7724209183618032,-0.07159318382727618,0.6139999112680607,-0.5536297424132934,-0.3729767800787606,-0.46714506946572926,-0.4375181893000877,0.3195913913003561,1.0649836081408566,0.33978306721635093
88,0.3909810806740891,-0.2976008311470312,-0.6633299199678362,-0.05561305056412061,0.5268394051338469,-0.4745992316492554,-0.3173821030107309,-0.3734365262939245,-0.3484831848946453,0.33503702462293167,0.9227057179421543,0.22444033922105897
89,0.31996442278291715,-0.24275146866281377,-0.5450601286888587,-0.037757714849689455,0.4354259232635994,-0.39374426090432335,-0.2579343576568902,-0.27537360772106784,-0.2505370840205816,0.3610920980585961,0.7977814340162279,0.15111797443709632
90,0.2703599286096616,-0.20214588565575986,-0.4464809521211462,-0.03337032967001923,0.35693732614960033,-0.33029144170050473,-0.18804066694618465,-0.1784893466469834,-0.14207143924068327,0.38578331962195583,0.6750648476660508,0.10508662379713776
91,0.21790209460762813,-0.17040845071211852,-0.3872983152196291,-0.027286903071454136,0.3004742622865981,-0.28419563056027053,-0.13128076332091587,-0.08458821613711333,-0.0341070319466007,0.39203381981878127,0.5733584089229016,0.08014544573769276
92,0.17588147431728496,-0.15560238137974763,-0.334184200073331,-0.015571085822323378,0.24838869160221108,-0.24015642670624088,-0.09245995128373785,-0.0006668771551059521,0.028314802344465317,0.3770574226194916,0.515366604712324,0.062412811428953975
93,0.14652447149607137,-0.14200650669807385,-0.28727492550769285,-0.007505621226437562,0.21106937027877185,-0.20777385471774035,-0.06673015771796724,0.056508419445420746,0.08129771377843947,0.3473196411905251,0.4831163224898485,0.05857499959429813
94,0.13106090780210122,-0.12045150570132579,-0.262036428965137,-0.0016341489078738058,0.18846123030853268,-0.17378739223058504,-0.04529797967776894,0.089446072813457,0.1109277917424001,0.31237468830641546,0.45450813118292704,0.08007871967454575
95,0.10916863359859699,-0.10892109935021818,-0.23178324389042937,0.010637302560649433,0.17038892895464097,-0.14853088362462544,-0.02320333051493839,0.11265566449064725,0.1293379940925391,0.26927626592862275,0.4160762979198784,0.10673682300457574
96,0.08072119491951577,-0.10924907282067309,-0.20490607582075943,0.02570752833248514,0.14277015539859275,-0.13865850842988098,-0.003346817278421947,0.13750064273797521,0.14656775608024092,0.21986114900654716,0.353965017082271,0.10571834467769911
97,0.05436543427410239,-0.10768980009216211,-0.1742056826796106,0.0353622216752145,0.1137870506257512,-0.1251261145922499,0.012310242918969372,0.16513417934541696,0.167811021985093,0.17574142748713462,0.27916288200576644,0.07404727474779606
98,0.0358697363089462,-0.09342827834081754,-0.12730274113599546,0.030126410873935017,0.08437988471587973,-0.10332644498374892,0.022208147591599045,0.19268031586106837,0.18412271543812345,0.14353311501397137,0.2085092158309675,0.05526514082414459
99,0.02571187202123183,-0.07391141110640215,-0.08727412590735281,0.02136419582815631,0.05322210246910673,-0.07463174532919822,0.0372521073369103,0.21832126055339185,0.20005355301877528,0.10678524283076749,0.12107839200182273,0.03514173607604366
100,0.005216724116636633,-0.06624069954056659,-0.06706178625351206,0.026958233307940588,0.030764154169729607,-0.054614501225696874,0.055095422377258854,0.24256561655607184,0.2163705280177647,0.05790390049576187,0.013467654410997714,-0.0003409084078575056
101,-0.008705724741624591,-0.06322309247050308,-0.04483584694332011,0.03393637047181894,0.011268886082584337,-0.045816704050371866,0.06781973731988611,0.260688998671254,0.23513085032901884,0.01395004591112525,-0.079455942436625,-0.036499585735614966
102,-0.026544450714805674,-0.05974075788349989,-0.027466856599103473,0.04338714668089187,-0.009045392703611807,-0.027166245759423866,0.07813855588952393,0.2703802545417569,0.2490820024120588,-0.010877219463732997,-0.12807133889552436,-0.05756269619222241
103,-0.04068401453543287,-0.05745298309327804,-0.005676506829641352,0.04921641386822672,-0.024025893470953227,-0.019372855761637935,0.08640619418649546,0.2726866476201472,0.25875674522283126,-0.019872057728925318,-0.14844364336514798,-0.06229577386222763
104,-0.051118755422311556,-0.058649136545365924,0.003006426385827473,0.04820823692634314,-0.03330682538037064,-0.015759922154387866,0.08300366110936808,0.26982397451623125,0.26545365383140207,-0.01485712525311144,-0.144788893660389,-0.05784013545353053
105,-0.06134763665665612,-0.04958099534360312,0.017873958956428158,0.05196467206978178,-0.044565404705624506,-0.006957335677607273,0.0805403391034957,0.26718317618719883,0.2694351148809349,-0.0066110367361813405,-0.13676208974039614,-0.05538631907114151
106,-0.06668382646673576,-0.03626528736912533,0.02911008453172837,0.050959062146419355,-0.05308584286685043,0.0048317590181005425,0.08149769210520214,0.26960554355242144,0.27232216177795177,0.006412668263749352,-0.12367108844440908,-0.05157833483127714
107,-0.05274439336021257,-0.01644124020483919,0.030276854832082513,0.037216955186895426,-0.04554957697419238,0.014767675408821332,0.08309307576116542,0.2747804880215576,0.27980230672712947,0.020207520617190083,-0.10873168221333762,-0.046487135093254174
108,-0.031742532925831096,-0.008735791696520893,0.023816532040288694,0.02663003276223461,-0.03090317437993615,0.017207875472927472,0.08326688507408014,0.27840601441934965,0.28518210371394315,0.03150934358812624,-0.10193868637445065,-0.0429785767524374
109,-0.030540063514991965,-0.014446995870953445,0.017556745833294585,0.02528234806040545,-0.02454691252524853,0.01245385770274479,0.0775794707855981,0.28056607888811047,0.2884752243508229,0.040752819644499144,-0.1017717336150756,-0.041076830153359764
110,-0.03800657346867138,-0.024248659248205177,0.014487891087227808,0.03387599547906221,-0.027153030037110913,0.0038092228906002022,0.07047896584862201,0.2827087088265641,0.2950226007107335,0.0471394237109162,-0.1044021259897251,-0.038115483415796556
111,-0.04332635608849647,-0.02949383031575965,0.009116607011987464,0.039164493863732226,-0.029844205582178533,-0.0044861457476305135,0.06774654481191006,0.2855842760674554,0.29801630697012915,0.048084785163720695,-0.10205132054201821,-0.030530549549062216
112,-0.036606604936072026,-0.025051671179027263,0.002445404869637662,0.03419068115258449,-0.024738391564689655,-0.00685974872358824,0.07042686637636425,0.28930738176250054,0.29955058261092365,0.04769361989129574,-0.09775697094870953,-0.020622386877412184
113,-0.02530504592656516,-0.009469632598785995,-0.0017238929728142349,0.027391689311721968,-0.014585044891291837,-0.0022279647875610184,0.07004607223753166,0.2919460318839063,0.3010511404017538,0.04602121236345118,-0.09667308700699005,-0.01461551441078611
114,-0.02198510168782944,-0.006101336160628993,-0.0047211644573098566,0.02378916821509395,-0.00913047646636498,3.575520116103829e-05,0.07377425676442527,0.2916468648912467,0.3036231070218852,0.045720877348223075,-0.0951692895849519,-0.01469491713781506
115,-0.022313529038613795,-0.02687533766957718,-0.004679311846437198,0.030896228814933455,-0.010361765742028295,0.005226138951818524,0.08152062782293466,0.2899684327413731,0.30348850921952275,0.04416289793321344,-0.0914911959683504,-0.017472731448756468
116,-0.019151322864637575,-0.03967203616364137,-0.0013470536148122055,0.02613160819114849,-0.01086135833463684,0.012142161689112939,0.08412160488263319,0.29006761028106104,0.3028616747090208,0.04643512144984569,-0.09564939948820773,-0.023006979329551078
117,-0.018127365204009864,-0.026707107500739125,0.004702499910790988,0.019664439021953577,-0.012721384050887598,0.016496534138557593,0.0809144358373959,0.2931912691222965,0.30538999596318206,0.05717473698606644,-0.09603748272050479,-0.02213362282436672
118,-0.020175933630625528,-0.006623747361349639,0.014470146661891033,0.01785501833948703,-0.016428047419617245,0.020973107051897887,0.07811182230124773,0.2984384162440228,0.31806267822542017,0.06382438794004369,-0.09129702944567669,-0.02261785001379929
119,-0.01785147141998508,-0.0026101571169654053,0.016317565542635318,0.016217943403280696,-0.014578429039863025,0.02433751840891512,0.07801276800449011,0.3032598690889445,0.3300830174346199,0.07159718806669826,-0.08896503288713144,-0.023186582349388973
120,-0.011889636999564194,-0.009304327603184316,0.009795557840580074,0.014854724497115024,-0.008206035546508917,0.0176769651976073,0.07645200237258876,0.3044115265865689,0.3340678522606141,0.07626363140597373,-0.08801940286394311,-0.024790637381994954
121,-0.00684206858878466,-0.00667410329594076,-0.001296666084661129,0.013164380153959309,-0.0035425264443192817,0.00820672076732699,0.07127463322879435,0.30906214587253167,0.33523195232050856,0.07571864724409828,-0.09256411095774711,-0.026380753628124726
122,-0.0029487513795485483,0.002764459788133722,-0.005882390321482463,0.00941060400235061,0.000968311619861691,0.0008425759932091997,0.06915580676895587,0.311511942224872,0.3399008275854769,0.07171204247073837,-0.0943681265395889,-0.028141664188499574
123,-0.003212674949083125,0.0010359331386460306,-0.0040716658464444834,0.002655938134769437,-0.001710083922835514,-0.0005375381299477042,0.07525645989189408,0.3133168713883064,0.34693642861619245,0.06800709941359845,-0.0940265160829537,-0.028839942408000162
124,-0.007466543373540713,-0.007253674339003478,-0.0006033879340291998,0.005691902993519294,-0.008622287654726883,0.005858659763136688,0.08685630385367904,0.3149957286173563,0.3508252944744337,0.06183062836256925,-0.09142062663726666,-0.0312784044981176
125,-0.004567115554354326,-0.005542237676942695,0.005084315532307244,0.0015826312886393582,-0.009287207356058128,0.01258504782859075,0.09034041482741609,0.32015616769624355,0.35055478941316387,0.05801168158979636,-0.09130465577992905,-0.03568810431112966
126,0.004092380733032955,-0.007281989774773161,0.0031785407794970525,-0.0013439666118722354,-4.158787433727537e-05,0.0070830532962297766,0.0884564106569652,0.3212190824617153,0.35095766150609314,0.05837247298945011,-0.09467625301619147,-0.04315184595942235
127,-0.0032043272216659147,-0.01426971051538084,-0.005497451983456886,0.00947371067545516,0.0006480545297902415,-0.005241293444073599,0.08927747096740138,0.3241692307694473,0.3564738990173041,0.05668264162725901,-0.09754449218690854,-0.041473846548176846
128,-0.026176074756116278,-0.013936643262169458,0.0022793638500475857,0.020094023698011183,-0.014726227154187192,-0.0025502470886055676,0.09302597936931387,0.33451468528254485,0.36149810911811764,0.05135968654004668,-0.10008376568120875,-0.04001760744762908
129,-0.0008299175830396993,-0.00726778959338404,-0.013245768438441514,0.006608752851297404,0.0010638999678162075,0.0022377907217709437,0.09079802730427605,0.33481073991381394,0.36139579578777625,0.04612452023619561,-0.10287353046899139,-0.0481474944745221
130,0.019662955138532952,-0.0003520826822852683,-0.023498357040656448,-0.010043221595167696,0.018300541729155934,0.005569566580125046,0.08775901906336588,0.3251684796775759,0.369398793187891,0.04941703370072987,-0.10195501369190041,-0.047842728654682073
131,0.036939726937537665,-0.0014281143065971334,-0.029854375619645976,-0.01609887195963486,0.029050124487873356,-0.008070780767066603,0.08636004169673397,0.32002640132976606,0.3699227654936472,0.05620642443029693,-0.10630734373687803,-0.057267834225192216
132,0.03821417740109448,-0.012117964518880857,-0.04044033209267561,-0.015165710717400274,0.03932333670648591,-0.020464100863324217,0.08756162567558362,0.3236282096731096,0.36731562970233433,0.054581599767856925,-0.1145575875865717,-0.06470932703484342
133,0.028894440246035952,-0.017310095681566922,-0.02829371900188664,-0.012503206394958699,0.02813971140574832,-0.01194403709576024,0.09068041817979908,0.33010285822303714,0.37286633997516944,0.04950127368473132,-0.11736330915461374,-0.06563515645632256
134,0.02994786369067878,-0.016505745842025625,-0.02023809512130887,-0.006251723037612386,0.021103466944039327,-0.0027119603506898723,0.09512089692052027,0.33592503943968016,0.3806751555676501,0.046583540856644755,-0.11859720515528938,-0.06319589803345706
135,0.02652627267310892,-0.015146757949227544,-0.012490557710229928,-0.008091236935980847,0.023089606742660605,-0.002276640353165362,0.09995109642235857,0.34171246062320665,0.3869374317109166,0.04105441727606325,-0.11734651727058026,-0.0628874035078119
136,0.022676700171807763,-0.010123068004563916,-0.014156506385800686,-0.010340768525202148,0.017319652515558656,0.00023705167460044024,0.10188759372488562,0.3469490503550306,0.392055402337281,0.041660483992552344,-0.11682731971056162,-0.06682774214933415
137,0.022532322149421687,-0.006627649042720063,-0.01228806104654335,-0.010830756279993548,0.01613231118599471,0.0023951673001487406,0.09774821291107343,0.3527783358920664,0.39906568182476626,0.04291293311003555,-0.12109671273350228,-0.07111872897180688
138,0.02352954405379125,-0.007995302603355977,-0.007017076607348327,-0.011589476763876363,0.015854893561751262,-0.0022088549891798254,0.09207321860935731,0.3630050389773871,0.4068105387365688,0.048409885405304234,-0.12417819017623835,-0.07136632620453005
139,0.023101387280152656,-0.014560193588137378,-0.01615647632059692,-0.007713229481210152,0.017165951748697346,-0.007267160301499554,0.09133731514101755,0.37938799317498795,0.41705080075667367,0.052795747341024435,-0.13030709347359795,-0.07226329801954409
140,0.02223031140924684,-0.024753492951375963,-0.019721651836335556,-0.0047628551881305605,0.02240912558014391,-0.012631973057039211,0.0986335869016284,0.39781200825449947,0.4278333668047804,0.05395085071425574,-0.1309893738216548,-0.07365272184556454
141,0.019616823455242557,-0.030680127263817573,-0.019335720114310794,0.007587996524537646,0.023621770366506645,-0.01301536760647995,0.10939252774964066,0.4075302628755894,0.4402039026533255,0.05473512971736956,-0.12917247503755575,-0.07577457024019897
142,0.012520447099065711,-0.02340765040902486,-0.0245318709836706,0.006180293461911313,0.024160042420196932,-0.007581668918972604,0.11277030792236396,0.4012422242353096,0.45266799138364516,0.05659971510355677,-0.13007830894325811,-0.07371615044869548
143,0.017936290474838808,-0.02040562677472119,-0.02603769761203157,0.001487872192130063,0.026593374815942247,-0.009056370357565352,0.11135040088462063,0.3991212443977218,0.4581035391102185,0.056748175488608874,-0.1383181213330484,-0.06974198633126452
144,0.018902694715552896,-0.023451192991090216,-0.02983916548753973,0.0023068694389201186,0.02664174619908348,-0.02085293166168322,0.11303129840877083,0.4033030255795734,0.4637332246723729,0.05210397042066607,-0.14378363792775242,-0.07166924356820067
145,0.005831551900940328,-0.02946912432534873,-0.028773713368862537,0.013475449965840009,0.018203612504084542,-0.023858381506868184,0.11448545287766353,0.4126800649220729,0.4748851651965525,0.04430100311461051,-0.1489615225117405,-0.07568668416939252
146,-0.005243182296500497,-0.028753576662697542,-0.022939649856927348,0.0202634448251369,0.008379506067220308,-0.02166179692857754,0.12014369653921485,0.4256612219275413,0.486195428734839,0.03811757299938896,-0.15002787520746244,-0.0758024151826086
147,-0.0011805144492677555,-0.02184378603400984,-0.012942222633641823,0.011746003085791363,0.005956066098723887,-0.006606866836542752,0.12694538456907134,0.43798913958155755,0.49959641024956286,0.036750456714519715,-0.15160010477492653,-0.07728728039514013
148,0.007641153467132275,-0.011730177460700437,-0.010589010657033736,0.009335363228571345,0.009640686942463606,0.008553346161320509,0.1239412204426399,0.4515219619522996,0.514235151269675,0.040783576573740654,-0.15604650454071264,-0.08101714662893215
149,0.01585513069100837,-0.011860290693269115,-0.011810266731661457,0.0002586183098406535,0.017073384296812735,0.003497780666107562,0.12096519504470923,0.4649760360695854,0.5317741233850615,0.04674864282122364,-0.15949753036427994,-0.08211972541095806
150,0.020555859240973258,-0.01592260464572231,-0.019408581472706736,0.0011109720998777684,0.027925595648171667,-0.011886223351940844,0.12589303714397226,0.48170504357570765,0.5506706901401208,0.04808434285277399,-0.16057516722893472,-0.08094628803762732
151,0.026399064977370733,-0.017795673339420552,-0.030638191947067916,-0.0009866010470279234,0.034592831105862074,-0.015044394650153064,0.13793623962360024,0.5021285022970773,0.5678947913308345,0.044350431006542845,-0.16219314928106415,-0.08206368794602321
152,0.02598029711720114,-0.014322560388142874,-0.025155358595399906,-0.005938517213013767,0.029012763149622006,-0.016667997826164262,0.1477321550857687,0.5203898223318453,0.5807159381978833,0.042703303475331134,-0.16779115672527622,-0.08481704713940233
153,0.01843904447815159,-0.011018109851028012,-0.013955375513648345,-0.0060268158717166394,0.017123350807163012,-0.004759003003864097,0.14962788629153218,0.5339902222443208,0.5929582470648813,0.04542524784877472,-0.1722655464849089,-0.08703464362762754
154,0.016941100853780824,-0.015904607751802635,-0.007928427395460402,-0.003932923364951517,0.015180040556684538,-0.004087123384692089,0.15478559731351377,0.5469833587714987,0.6093327867167496,0.04731872590675007,-0.17233639011329702,-0.0886044186494479
155,0.027702380203411134,-0.00734375575708681,-0.016693645514723805,-0.010451453337382415,0.023569343696960017,-0.0047238106407975055,0.1635570087699767,0.5632517557119344,0.6306295834156712,0.04654763488902343,-0.17647606348258318,-0.09097082110559906
156,0.035355392774151374,0.008657585209462146,-0.01893838470561338,-0.0208421434503107,0.026885181903455607,-0.00029085281986750144,0.16897952804765082,0.5839364989765371,0.6495122784553955,0.045790684754839654,-0.18638623748470856,-0.09483239524146012
157,0.027150710034458115,0.006902017679535425,-0.011125445109786152,-0.01678058668704441,0.01912220691543342,0.010930065044753471,0.1698453203461727,0.6065611490598628,0.6632446634483187,0.04769693712859997,-0.19378184961640532,-0.09981575581283635
158,0.015332755385710042,0.0007643140083430661,-0.008525066382717127,-0.006017428236473902,0.012962539528925145,0.006052398275338296,0.16819154286869825,0.6262756467758268,0.6841268678864082,0.04611591270621948,-0.20099648288969868,-0.10322867768903746
159,0.015050722593178321,-0.004392164340545669,-0.012633664099115623,-0.0018743890396194472,0.01706459081528669,-0.008750235065309161,0.17115335775296725,0.6437111650933256,0.70876561129977,0.05169015780750829,-0.2061447495700329,-0.10119493986104518
160,0.021200320893705847,-0.003065949734556217,-0.008295486563789624,-0.008272438269774054,0.02201922648031742,-0.0015644976887041195,0.18180942775371076,0.664051234332814,0.7331110352473578,0.06156117533628012,-0.21355934215503974,-0.10219168276710157
161,0.01682337986387459,0.0003527246349748787,-0.0003473863225266025,-0.006382031035852219,0.014833873446793632,0.005028948023884198,0.1949282789781694,0.6857489113584543,0.7547880135277888,0.06779010265335741,-0.21970498146821021,-0.09948741398369472
162,0.01587996499025905,0.0065606760825023215,-0.010144574566737664,-0.01076967374298948,0.014288204025945822,0.006831357143290122,0.20120060342853743,0.7037548962945188,0.7715624226763125,0.06554921302872703,-0.2242767497734282,-0.09854498972648564
163,0.027018511972098386,0.019118229749749124,-0.004707775214851358,-0.02233167905399203,0.01760654798733592,0.013035227224174217,0.20736355728629166,0.7211810263808731,0.7936261246801973,0.05838752203790552,-0.23169159888768645,-0.09929957757395805
164,0.039558034076784265,0.018971096069631117,-0.007822527316118702,-0.030703771243525198,0.024614114558485164,0.01686209475297974,0.21626690793225134,0.7429811710120069,0.8199408901858141,0.05422991160262037,-0.23721371266837296,-0.09919036085160421
165,0.046533276784942845,0.01854943881614393,-0.0027301006494166585,-0.032513619941735586,0.03143593165457147,0.02184759438938097,0.22745754601951335,0.7667970526189329,0.8466888339604289,0.05729090459472749,-0.24130864985722236,-0.10057826298824431
166,0.041303765747536414,0.02485346898617402,0.0007952533329153542,-0.027995234876175376,0.01985570789475999,0.03018102373142058,0.23802154551919463,0.790161365529643,0.8702071592056937,0.056983564560772734,-0.24605369933298865,-0.10456927156305891
167,0.03187763939476639,0.028623730971951755,0.01621170231102797,-0.02431187194873595,0.005929054790127671,0.03722600196808795,0.24477645111605362,0.8150612613071411,0.8894213264814835,0.05781842542151169,-0.2541471712928629,-0.11305152375874276
168,0.027440657851243,0.03598019878307178,0.02131732749462674,-0.029724773222700587,0.0029127501033751075,0.042234948888390064,0.24848321201610862,0.8414035752147457,0.9080352713812674,0.06604583073148998,-0.2645554578889513,-0.11660555952029242
169,0.035661201964567305,0.042223769548681234,0.02141543080915068,-0.033158000316256625,0.00502019051685877,0.04047028079622238,0.24936931015530506,0.8607788648736674,0.9307800629554985,0.07701981967882143,-0.2732999199778506,-0.12088524860346027
170,0.040090688439728864,0.04763880539632285,0.020195646188398215,-0.031829274817858536,0.009499389038533698,0.03771445016503935,0.25438378964112923,0.8852421063273967,0.9509291565274283,0.07987684435849249,-0.27719967210459995,-0.1210185880591986
171,0.0340020957661826,0.0468945984241254,0.026315594408509738,-0.03175249856195151,-0.00010150492467394558,0.04030260600320941,0.26579553066862577,0.9114487491717336,0.9794503203647398,0.0738082187128001,-0.27562768942526766,-0.11766415987184685
172,0.02142175557688815,0.04185427856771893,0.03215468347711653,-0.028315219183286944,-0.013362120924831373,0.04303536331147086,0.27590126864774966,0.9320031649593068,1.0019060972763596,0.06770253746490121,-0.28019909077605865,-0.11590594973537384
173,0.013926922326369873,0.04651343142984664,0.04324596501051098,-0.02896615737501417,-0.013693244619084513,0.046781940993095045,0.28052045203300796,0.9469363531779602,1.0176989540676957,0.06397830887908598,-0.28968583440733103,-0.12038100102092819
174,0.00998473522075393,0.05642420212761762,0.050589774812369766,-0.02865500049443002,-0.017020778597257723,0.0558884822377388,0.28618532869453955,0.96329955420996,1.036592361790579,0.05820922758279644,-0.3024802624756455,-0.12891697431456692
175,0.00458854920209679,0.0688649584921507,0.062116823534092536,-0.02721894030159029,-0.024355281811611115,0.0622780295480055,0.2951198906835731,0.981093827870734,1.0531987093987722,0.05156067644607312,-0.31113684875171155,-0.1370892474879735
176,-0.0032370079018165174,0.06941841896378563,0.0695523411873224,-0.026026452186729568,-0.040618104400264816,0.0681152266076273,0.30040356030326193,0.9966876736314918,1.0647126133215883,0.049073717058010245,-0.3199950562648613,-0.14336450565162567
177,-0.012974933787224606,0.06478907254604951,0.0748441931159245,-0.023985108601201937,-0.04440807130267977,0.0717972334778948,0.29895051030687075,1.0122404876335427,1.0823293177082736,0.05087461692664415,-0.3315426795867846,-0.14538427302910384
178,-0.0034495491023092788,0.0698289450858262,0.07957135125052903,-0.0332392192813894,-0.04243270824801933,0.07296355666074768,0.29622167611576616,1.031000677224596,1.0967464535229614,0.05500058101219338,-0.3455776420493613,-0.14417944376019715
179,0.0014290003612880877,0.07616513840168969,0.08315607176375442,-0.03522546204396758,-0.04216040460545338,0.07435702962515095,0.299932778517624,1.0531654840137756,1.1152510207296265,0.05905064011604557,-0.355491490208336,-0.14852053610220498
180,-0.00526355180865477,0.08957403141462261,0.08623362782974639,-0.031249213564921358,-0.04587759887648613,0.07999842519756045,0.31154813904917333,1.0755312556551953,1.1331374062819313,0.06056416836728984,-0.36215387316892894,-0.1549731564963846
181,-0.007155969756879699,0.09442818297417374,0.09141664966204333,-0.03624200627075407,-0.050995126219239725,0.08528314147054358,0.32267064245846283,1.0905623206013593,1.136916229230786,0.05681030468190216,-0.37279371440052594,-0.15899170289435807
182,-0.009337296877776225,0.08376529878599798,0.09706244868760694,-0.03454067944876698,-0.05256579007859741,0.0897865962182377,0.32710962977589614,1.0955678450238815,1.1371665598721643,0.04925610739535258,-0.3866927584310654,-0.1586463734033137
183,-0.003414317874286369,0.07556709444389886,0.10129132625030346,-0.04106586409585107,-0.052977935877916243,0.0957490403905196,0.3303177582606864,1.098262253712694,1.1430113701173799,0.04191560021174853,-0.397898163102825,-0.16190911566560304
184,-0.015039769679103258,0.0777959209756321,0.10394806994817526,-0.033626222087487015,-0.059992427664744476,0.10030440011986363,0.336275334634519,1.1031891297816618,1.1434239378182784,0.03550104892300498,-0.40567667248037864,-0.16248583731749636
185,-0.019795735605053946,0.08629535805431307,0.10409083920366773,-0.031008601171824652,-0.06429243218137329,0.10181682807273493,0.34095918640090106,1.102551399682188,1.1444660029141622,0.029049305176057007,-0.4150749963809335,-0.1693923557957347
186,-0.026469221790257683,0.09123528454528634,0.12163530930104452,-0.02338691875773431,-0.06618417410494787,0.10715151623549478,0.3440094014316117,1.097567333821412,1.1411649458578048,0.024764205086774474,-0.4263795863524702,-0.18029809337613198
187,-0.023288788676783488,0.09643379254356668,0.12400074554676471,-0.02830970533761456,-0.06759812194050561,0.1169898922854943,0.3473135313178734,1.097938016861424,1.1401894138274227,0.02537734774444704,-0.4353788138649276,-0.1878846388631969
188,-0.007708580473914487,0.10936514396876476,0.1266462777951111,-0.05040326000739948,-0.07074070383422949,0.12892462162795837,0.346914748249077,1.0990356627529565,1.1385434102590597,0.026889661393006702,-0.4405191382138907,-0.19022153396592872
189,-0.0032681970450989094,0.12533963053450706,0.1285627722559067,-0.06150806950567132,-0.07039967516093179,0.1266067942424,0.3409652794801632,1.092818928437052,1.135767619720578,0.02073450307977874,-0.4444681653165489,-0.19319366749908495
190,-0.010500243464571858,0.11667379176997442,0.1262145040068821,-0.05235008234576946,-0.07210793507561601,0.1222787837347665,0.33537585001679854,1.0870169114123858,1.1297434404492996,0.00677867996213435,-0.4508053972678964,-0.1943653791461133
191,-0.020455714209200008,0.10760138498336803,0.1316424181729622,-0.0390354563070038,-0.07698199321509396,0.11479541088872527,0.332388183175612,1.0844710748285973,1.1208983056808846,-0.005081558641292906,-0.46015436229713047,-0.1940777080248149
192,-0.02956476969693327,0.10689498198791159,0.13292704241182232,-0.030324666354466234,-0.0786909862130323,0.11215137343545245,0.333728474741469,1.077210714502379,1.1094425926686822,-0.011206406508035942,-0.4683766188211133,-0.19495119093142052
193,-0.03645450260576994,0.09873617929854134,0.13832360731701593,-0.029910200345444813,-0.08861111956726597,0.11839301004225526,0.33531830204314994,1.0623779123328725,1.0995193976617883,-0.018221627961218567,-0.47122545313200787,-0.19627421047171992
194,-0.047865533486188286,0.10016442224985495,0.15622823881199602,-0.02367679667836764,-0.0999553139906145,0.1271782050600953,0.33485093484489853,1.047388314278511,1.0888573297706161,-0.02781423850200122,-0.47067398995187676,-0.19621535798609951
195,-0.059404625002588154,0.0976699539383831,0.1705538114111532,-0.019639592339103822,-0.11547772605797584,0.1358171798785353,0.3293234388875238,1.0368157352593281,1.066338894755198,-0.03463756526852452,-0.47208371409978056,-0.2015265789103472
196,-0.06750581099706188,0.10054359981083175,0.1760358827821905,-0.01757452570875595,-0.12285240751751492,0.1359316031355109,0.31918118731554584,1.0253659672198132,1.0438230836291422,-0.03750291752524871,-0.4776706438529728,-0.20620039854120517
197,-0.0697231145358694,0.09759597316533122,0.171812591067271,-0.014095952307764132,-0.12487136103815016,0.1320358899056772,0.30654085377867646,1.0079710064758953,1.0247251923254599,-0.03825100183793568,-0.48625818576682633,-0.21088155961928187
198,-0.068062911918261,0.11015101790940621,0.17076510898373312,-0.019120206063985012,-0.12238581795374859,0.13611867552317264,0.29255887175706125,0.9914272370912907,1.0056415011564872,-0.037499744253303074,-0.4935585853796607,-0.2135743402338786
199,-0.07128590902096374,0.10433406160261856,0.16922038205323886,-0.014647912483643213,-0.12255425762386754,0.13700880221832726,0.28462901601996093,0.971013801723246,0.9805827952585535,-0.039010639882783596,-0.4993823285149679,-0.2184886185234038
200,-0.07479069376776609,0.10505065557228302,0.16207081726893371,-0.009356203138196136,-0.1230230926034995,0.13685953749691768,0.27275593902357415,0.9514178377402964,0.9506534331905819,-0.04633144573957842,-0.49851224694747576,-0.21739177920453237
201,-0.07255555153539772,0.10721782587600016,0.16007191665673348,-0.011167422004092873,-0.12005336626974672,0.13317010270567853,0.26198844696727674,0.92875681169341,0.9211261411471969,-0.056081593111656516,-0.4901537511032523,-0.21397200091653618
202,-0.06720629231992188,0.10571009634843163,0.1617385802892541,-0.016272489739068384,-0.11556102394730165,0.1330509382669109,0.25436548198639264,0.9027746247365864,0.8913572795858191,-0.06742277862861304,-0.4813634953425891,-0.2064267073701011
203,-0.06311797169554395,0.10178409722903008,0.15602470293946344,-0.013057267475661005,-0.11006984516860897,0.12982811697939536,0.24790466030986957,0.8754891207974576,0.8615787910846432,-0.08004215142642054,-0.47689580765637496,-0.20715875743826717
204,-0.06272961715194686,0.09855746748727769,0.14581978416624336,-0.008581615686166593,-0.10477320851020028,0.1264920355445328,0.24085730700197855,0.8484530810206995,0.8272890928591163,-0.08866475588007355,-0.47672159517382673,-0.21269001602542564
205,-0.0664355770324952,0.09836556744017781,0.14723971738929995,-0.014878304317091893,-0.10885757400007948,0.12303379757449895,0.23298658469325317,0.815637611745924,0.7958050393057629,-0.09110025383903461,-0.4755586560437495,-0.2132851041111343
206,-0.06575094332565348,0.10131768461711128,0.16057710701041955,-0.01934067257342529,-0.12198625287507166,0.1312388935648922,0.22311342383699403,0.7888304811368103,0.7676357398489871,-0.09530433214509178,-0.4710024619726387,-0.2114091630748558
207,-0.08556052101664025,0.09522426937155315,0.17120506651774448,-0.005470067609068114,-0.13783001444719462,0.1328600121432903,0.20885037937688838,0.7579492597998461,0.7327945985010241,-0.10446935847887254,-0.4677223450390466,-0.2145474904125456
208,-0.10506199931254674,0.08094401254379088,0.17535355975364836,0.012795685191309804,-0.14628826867098121,0.131393616850872,0.19067607431197875,0.7249372652969188,0.6946313061390901,-0.10991053642541762,-0.4574785689249866,-0.21699760048531974
209,-0.10112003205586234,0.07741151864843854,0.16848931419173066,0.013990810952059536,-0.13621699465517656,0.1305015602241392,0.17275024638431638,0.693860140810199,0.6602656656120425,-0.10809305228981983,-0.44718533394920607,-0.21411229292481637
210,-0.08649205145606387,0.08360895558782476,0.15628472086886985,0.0035610593765301344,-0.1232589051231481,0.1271503683676276,0.15822441388797828,0.6635918369539322,0.6298374204648324,-0.10575570109531948,-0.4392945218307423,-0.20772281625501302
211,-0.07753105949275149,0.08252316083559808,0.1455228353759504,-0.0017404399698039436,-0.11617804651966367,0.11908754545791501,0.1462227809416164,0.6315249136073628,0.5991956323387999,-0.10664082568947436,-0.42895095802500527,-0.19877530847859964
212,-0.07663599270656526,0.0773894649021987,0.1411219491262446,0.00035995570911507777,-0.11504329942043003,0.10615245357127433,0.13437287774544598,0.5985065781170276,0.566510455933761,-0.1113166731994708,-0.4164243759424947,-0.18958833269686526
213,-0.0745552555140996,0.06961767238408072,0.13384818159031842,0.007250800245429387,-0.1132973114664836,0.10152705946441298,0.12305739779438903,0.5659755803911906,0.5336180278361011,-0.11679051289096123,-0.40909258428823814,-0.1795142886585766
214,-0.07675771833017016,0.059594616494133786,0.1197727471922386,0.01746723435617563,-0.10497717228407905,0.09293866894487232,0.1130961717032514,0.5331116999468632,0.5022787516370346,-0.12323340709076645,-0.4022455930272184,-0.17117727125342266
215,-0.07659588490764722,0.05101149498632711,0.1154998647956607,0.02087901555134705,-0.10450127813443866,0.09305366421340562,0.10075055414073127,0.49908093613639204,0.47034689460786566,-0.1268555505946638,-0.393252189349668,-0.169448755652405
216,-0.08713259367701831,0.04063500134907127,0.12217320016969177,0.018094659841830174,-0.10960737122146313,0.0977875885815234,0.08344631323448169,0.4658496016026269,0.4362115335783877,-0.1257079059186506,-0.3775580794397581,-0.16580672990927317
217,-0.0831822623944379,0.05047189185342206,0.1218153358953529,0.017019977143929395,-0.10678496884781016,0.09963307637813593,0.06553413597023781,0.4364621553748514,0.40367838257754135,-0.11907955661143146,-0.3582358715202133,-0.15719785282638563
218,-0.07695091868590816,0.05242141421251298,0.10948159483430461,0.013836436873098469,-0.10442018363132796,0.09636820940205104,0.05011079714149781,0.41121363208095085,0.37659060289629415,-0.10985582691688217,-0.3446562676793219,-0.15075175429641424
219,-0.07526761285709468,0.04335070660824708,0.10319608593088359,0.01708842012087711,-0.10032901383498996,0.0862855071885198,0.035469585294483796,0.38454654833634566,0.34966259020282536,-0.10219920906477739,-0.3294045068302808,-0.14517865042059738
220,-0.06983569668917373,0.03455796078324878,0.09340813861635511,0.020502882705023866,-0.09014918994015741,0.07640614129455997,0.02212124344722982,0.3583780581860823,0.3244949946836942,-0.09579737709987465,-0.31394631368974013,-0.13809684644903428
221,-0.06210573394391804,0.029557782309771484,0.08671644775405027,0.015982207777389887,-0.0826247948923762,0.07295229531688122,0.011098356629153372,0.3314784535921903,0.30117542466864666,-0.09298552803168979,-0.29819672397330355,-0.13078464127914902
222,-0.05643781328836603,0.03449781544358019,0.0915572132637984,0.0114372802707211,-0.07839030966495379,0.07224833168805238,0.003776910030170083,0.3071980430211813,0.27757229325716326,-0.09132152647209353,-0.27566522131929183,-0.1154638299486399
223,-0.05376125486677579,0.031891978138421234,0.08845257286340494,0.013055625897134153,-0.07160542171619552,0.06785738043086534,-0.0022932681248965664,0.27979454738178394,0.25403919655789775,-0.08794759503971519,-0.2531489512942464,-0.10204324298893988
224,-0.053196565287813774,0.030672522129024028,0.08061508106972591,0.016409682215011677,-0.06740433102987495,0.05689915963383337,-0.009437521297267486,0.25361325364735715,0.23306835548728072,-0.08448560507472488,-0.23074256287146375,-0.09330362199914091
225,-0.051439526140316924,0.028630541746361753,0.07913737070976573,0.01471933330779764,-0.06606080218610785,0.059330312725066156,-0.01659615028373386,0.2297527035970877,0.21386412392780565,-0.083745709209696,-0.20951780013492385,-0.08727761695992986
226,-0.04600135319700948,0.03151451369907088,0.07981953394506451,0.007980111555901021,-0.06869399006184089,0.06364407341417042,-0.027479310257096025,0.2085071384975666,0.19389217853480614,-0.08307382898527907,-0.19363074709799866,-0.08249098343980854
227,-0.04312384255495685,0.03265213213927594,0.07203379988998085,0.007993916218804957,-0.06414987873634397,0.0558924721859817,-0.04209254132811266,0.18989319091257786,0.17337697681203929,-0.07676379960936022,-0.17877569500764875,-0.07826454452623098
228,-0.041161741074172295,0.028737210305684213,0.06020251592540086,0.010153079758359673,-0.057875302905093406,0.04989043270489786,-0.05027667037686808,0.17466064603332965,0.15483566808358423,-0.06917167878695905,-0.16070155502431774,-0.07317752577393535
229,-0.04240502070588634,0.022537654023997974,0.05604240072705095,0.019095034735781124,-0.05613686230674402,0.045645925985325776,-0.05722443543386373,0.16168924576297897,0.1417963940192556,-0.06368769064955787,-0.14068305289348254,-0.06224125229642967
230,-0.03791600491063969,0.021517329188911073,0.05128721323117422,0.017976808241680995,-0.05137850348737732,0.049811534488049675,-0.0655205488838442,0.1485444538275527,0.1315431194283295,-0.06022551566026235,-0.12348750966930441,-0.05073413334762988
231,-0.02931984823660108,0.01046461788166254,0.03836603194442442,0.014733440931930308,-0.040628206196287035,0.04184133767897342,-0.07195140154340425,0.13317971854336474,0.12162194409257422,-0.056510145751376965,-0.11135589994166396,-0.04478382001786162
232,-0.03141732367032297,-0.003020090949141555,0.0312717451874596,0.018408924495933145,-0.03478825269164702,0.03188148805949918,-0.07672395129891943,0.11459214510539267,0.10717090193415081,-0.05277683113570297,-0.1000522302972475,-0.04017946716589954
233,-0.03112905137053391,-0.0066102871811360864,0.02035586518757796,0.019721920597385752,-0.029881245753419564,0.023273353946264397,-0.08036416895800944,0.09546429432777725,0.09181409543810459,-0.050298037256122016,-0.0855593013037654,-0.034307899506894536
234,-0.017272277215821426,0.004898331650376753,0.019289150249008607,0.004852167041822581,-0.024216637363220706,0.020935894512680485,-0.08704903465423623,0.08054753574668146,0.07971632363829699,-0.049081052434678155,-0.06975859040190889,-0.027193820307994943
235,-0.007159056635898796,0.016946143247576463,0.019143024263616693,0.0020712299741477303,-0.016201403914573212,0.020583946370583975,-0.09859048625111823,0.07036461758185654,0.06849565971857997,-0.04758073530581945,-0.054816728288831156,-0.02267759208437043
236,-0.00854234983029568,0.01612468765081535,0.020010900518090326,-0.0022334983801656303,-0.019421509732376035,0.022082261475630964,-0.10735144372036476,0.062493898329215675,0.057730597962981016,-0.04230986469826355,-0.038669499333836836,-0.019590003067490064
237,-0.010016890320087643,0.019147951076214365,0.01945810467613248,-0.003828838571131506,-0.022873339364429056,0.02232269660358532,-0.1123624645191727,0.057121977852938044,0.053380996417326146,-0.03198642105009309,-0.021405463749822072,-0.012531876249573283
238,-0.008385739530518908,0.020832896305636478,0.01651301578295674,-0.004654464696165362,-0.021252239305109707,0.01996712822259533,-0.11460176015573303,0.05400615183728166,0.05483365310215232,-0.02167497380511481,-0.007628384839253141,-0.004043746282517725
239,-0.007935701956813463,0.02103755173048291,0.0094456184626879,-0.0008519988023581639,-0.016762666729698644,0.013075320107654399,-0.12213612648898986,0.04902121097020252,0.05183838484944946,-0.014118482508340113,-0.0020935888426473273,-0.006323433771680979
240,-0.00644524141193162,0.0049043227926607045,-0.00029285413780017443,0.0031040996436415714,-0.010479106538724137,0.0044783757954641665,-0.12997789059722392,0.04196937326825656,0.04094140904908051,-0.013710775532450032,0.006079562727852844,-0.0042364880256006085
241,-0.0058618275788157245,-0.002220431556503171,-0.00959550213856112,0.008850510195062326,-0.00396139648632717,-0.0002794271165189057,-0.1293173387139453,0.033143334209100574,0.029800340267945882,-0.017785286635327028,0.01642571992603592,0.0017738763742385852
242,-0.014544068929156021,-0.009768369815415037,-0.013483226888329125,0.015841184881016126,-0.0010289288715185701,-0.0056562282007475515,-0.1310047674162045,0.024579449644760325,0.02466914496882691,-0.017237917050569547,0.025770615947705612,0.009875214061372702
243,-0.010748711857170454,-0.006299706564545629,-0.016110480103419436,0.012439852777237583,-0.002888624286651327,-0.008860703802720431,-0.1355730001563164,0.018035401810788637,0.024594907023168307,-0.01388101680741118,0.03330140862475036,0.01790728476957973
244,-0.004523118349520457,0.0013103600021885115,-0.019311889936626518,0.00799400426383468,-0.0028098385736120687,-0.009638164279532058,-0.13507372546892762,0.01583107814924206,0.02463773317525058,-0.007596261686310975,0.03989286150004856,0.02130681094973604
245,0.0029734552274804198,0.004361174094648667,-0.01809095967064627,0.0011212431728586693,0.001562260700913429,-0.004420214521938614,-0.13163377827339576,0.01508294383564851,0.023839238902314992,-0.003962408669159757,0.04590039458470841,0.02285253441835384
246,0.00967797301777226,0.006472044784648407,-0.0156721940633459,-0.0061111588879001425,0.004386635325592317,0.005979941355345917,-0.13391114504053636,0.012233681515645842,0.02151484171014851,-0.002756389092985728,0.0517092238254648,0.024197455643104902
247,0.012203913057546237,0.01300407609921327,-0.012298345532904835,-0.009592903291643567,0.00497019305999143,0.005309702565451078,-0.13723721950882636,0.007940167466550282,0.013184954608144936,-0.0032488381195368847,0.05782684678239182,0.02235652521553781
248,0.015664607177670868,0.012304975396044766,-0.010872664492309541,-0.01547496369693271,0.0043432314019049385,0.008694467341546275,-0.13838118788133805,0.004481546494490729,0.0070847357451164494,0.004346431025997457,0.06466264758223159,0.02030879735929815
249,0.017562250104009677,0.017158585164465112,-0.010627428768958537,-0.019527292143710982,0.007950691024959218,0.013489622344464831,-0.1393844373618619,0.0049221159300262066,0.005720076797664751,0.013150954613551601,0.07054643095226251,0.0282442379457343
250,0.016872713833479734,0.01827917552802726,-0.0106451184280267,-0.020865553108161666,0.01193818748655106,0.009641046220138057,-0.14073173032436948,0.002875931559209434,0.008190644010015118,0.018186817446297857,0.07962408711849246,0.03573398655640013
251,0.013736858919177005,0.01108125607721553,-0.013535429135562469,-0.021866489189228504,0.011895888419350723,0.0024264151592923813,-0.14350028527636177,0.001642877110436515,0.009938422894449982,0.017936174750931115,0.0851371726681124,0.041831957282650635
252,0.016218823918290534,0.007085079204311987,-0.01648678293336068,-0.022248275861919402,0.013048845871654429,-0.0009081494178671675,-0.14585695163445872,-0.004779304592482166,0.009886396126332124,0.015157632362944873,0.08575055660531043,0.04364695228465556
253,0.023745183684127626,0.0060922696735694415,-0.02066506911381116,-0.018776109746965676,0.01753444791975505,-0.00011747729276037231,-0.14631040070883353,-0.008776942576489994,0.00989166759837757,0.015461638971889645,0.0895191967116801,0.04720618853401794
254,0.03440226518565871,0.010623832798130511,-0.024873589918294407,-0.01702462745966211,0.02105642849930951,0.0007312320283073114,-0.14540565274239772,-0.013413803342563091,0.01121045265912651,0.010846521509447257,0.09148680374989812,0.05016436659780552
255,0.03379701034713767,0.016233864996230113,-0.02563051174357329,-0.020219274921548708,0.019498567140072504,0.000649267350707171,-0.1419759882693501,-0.014839700246247662,0.0068432384430229705,0.005698999878476147,0.09077479182656134,0.053352287779711835
256,0.024409077102105527,0.033787521837430314,-0.01840150550565145,-0.029633043058093864,0.013142134926946016,0.0037493760693092008,-0.13511973740160665,-0.010089800787582072,0.0065361717211908504,0.0042961735781447885,0.09182245177803336,0.05623754376375537
257,0.019946365645895282,0.04185496308541442,-0.006859820332305617,-0.04126615309627473,0.007795766863696599,0.012890567129382718,-0.13329603895449557,-0.004426668752851824,0.009062036688089317,0.008995984090961605,0.09590036867935099,0.05948140228191534
258,0.019659597538924975,0.044527841819428995,0.0002475423502415761,-0.03994814660534627,0.004190482841793874,0.02540046889305874,-0.13768183385078375,-0.00180157068822763,0.008380892529322212,0.010891155989914938,0.09971530158549255,0.05630667804638554
259,0.025880432882361578,0.03930624923663585,0.0077285261527142435,-0.03389478662852844,0.004459047065042131,0.020921045680064344,-0.138601584909756,-0.0015271203273370462,0.0035839874966855853,0.00807772031283236,0.09852169141874725,0.053582903662966405
260,0.02970795275878362,0.04129541688643888,0.011482164644884482,-0.04291422396797389,0.005268851053647931,0.02310616380911149,-0.14333986162526685,0.001827495688660273,-0.001102950737695979,0.00482553618931409,0.0930041288019251,0.0530324813268956
261,0.03308678623178367,0.032459418861833934,0.010715954803559915,-0.0562909386232503,0.0042944692180991,0.02943257610236321,-0.1442155323956671,0.0024898901927930053,0.0033835156265462976,0.0030591196031269246,0.09041457696488855,0.05421322667032222
262,0.03379561891518283,0.034401065855140606,0.01668349822730735,-0.05652413537848256,0.00048763870213746827,0.02744364944126881,-0.1402741787398069,-0.0033821018433852004,0.00597233213043321,0.003990974072581543,0.09240246795315893,0.05805927375800166
263,0.03411537340251497,0.038235890146095824,0.021970146507034164,-0.04671998940933124,-0.0048152835402020065,0.024451887722091364,-0.13306087113575793,-0.01082947086667451,0.005026719120954454,0.0003789409494975354,0.09468564150833321,0.06146317962734466
264,0.04274379527248587,0.04682442067486288,0.02168482889819941,-0.04901798716329486,-0.004940847985792238,0.0261872287668233,-0.12584170096815217,-0.013223629253727089,0.003424113946288866,-0.002112536855094942,0.09456412338416967,0.06435389227915551
265,0.055112460188581236,0.05770457612068926,0.022827744575547454,-0.054027187418663886,-0.0017108300487338347,0.0327839479738451,-0.12188311954753656,-0.013108223631956607,0.006327004489371908,9.758256903293658e-05,0.09842152725902084,0.06624608621802588
266,0.05415127379819999,0.059885532387667015,0.03053661815597347,-0.059306745585415876,-0.008898794958860272,0.04163885630199117,-0.12085827816082591,-0.014031125197291903,0.007510613195977421,0.005680190736406157,0.10141410928824018,0.0649373553663016
267,0.042789984939129874,0.058409202316245815,0.03524034609759609,-0.05207430650194374,-0.017337765979688738,0.03980562651316952,-0.1211344058307616,-0.015361735242031375,0.004750168310199025,0.012142798929362392,0.10065334777532971,0.05997198420282924
268,0.03580143575275464,0.0595039836134484,0.03728986210830963,-0.04557563028199053,-0.02002371149848551,0.037638550576398325,-0.12491408438655002,-0.02217704370948792,0.002259573636274971,0.01176662383702452,0.09547274425445199,0.057105650877122174
269,0.039190127696892535,0.05919349729279714,0.036834329279174224,-0.052456841264479144,-0.016554542168093732,0.041141697609619665,-0.1330682865362698,-0.021272931921758997,-0.0021370201343637873,0.003119173467784009,0.08693211209323096,0.05953505091274811
270,0.043654546065907546,0.0660176180219813,0.03595871895721661,-0.05208671134055804,-0.013029863395623004,0.039823668398341436,-0.13930475792745486,-0.015622947722660978,-0.008936403939715707,-0.004052596334830952,0.08227693173223596,0.060953233136676464
271,0.03905572387319796,0.05889707176315509,0.03581858383221246,-0.0469636091651367,-0.012614095974754123,0.047656592109209424,-0.14008431909908525,-0.017362963491905893,-0.014556922949629281,-0.00947568154690403,0.07695776986002377,0.057566758343528875
272,0.037106277217784034,0.0496774726314482,0.03458886205912969,-0.04265518311768436,-0.011949909280302245,0.043912744612882096,-0.13825975674649799,-0.027496702893215954,-0.016970415319963097,-0.013298994678259788,0.07470935787019232,0.05510773129551259
273,0.0385824752850614,0.050058273299208644,0.030752865541419226,-0.04358368248520324,-0.010295535748381036,0.04156268948833666,-0.13902557147614794,-0.03248939802894324,-0.017687499784587613,-0.017364485477096327,0.07713052647596538,0.0578471872427208
