idx,I,II,III,aVR,aVL,aVF,V1,V2,V3,V4,V5,V6
0,-0.09759999999999999,-0.10736,-0.009760000000000005,0.10247999999999999,-0.043919999999999994,-0.05856,0.01952,-0.05856,-0.03904,-0.07808,-0.06831999999999999,-0.06831999999999999
1,-0.09759999999999999,-0.10736,-0.009760000000000005,0.10247999999999999,-0.043919999999999994,-0.05856,0.01952,-0.05856,-0.03904,-0.07808,-0.06831999999999999,-0.06831999999999999
2,-0.09759999999999999,-0.10736,-0.009760000000000005,0.10247999999999999,-0.043919999999999994,-0.05856,0.01952,-0.05856,-0.03904,-0.07808,-0.06831999999999999,-0.06831999999999999
3,-0.09759999999999999,-0.10736,-0.009760000000000005,0.10247999999999999,-0.043919999999999994,-0.05856,0.01952,-0.05856,-0.03904,-0.07808,-0.06831999999999999,-0.06831999999999999
4,-0.08784,-0.09759999999999999,-0.009759999999999991,0.09272,-0.039040000000000005,-0.05367999999999999,0.00976,-0.06831999999999999,-0.048799999999999996,-0.08784,-0.07808,-0.0732
5,-0.07808,-0.09759999999999999,-0.019519999999999996,0.08784,-0.02928,-0.058559999999999994,0.00976,-0.06831999999999999,-0.048799999999999996,-0.08784,-0.07808,-0.07808
6,-0.06831999999999999,-0.09759999999999999,-0.02928,0.08295999999999999,-0.019519999999999996,-0.06344,0.00976,-0.06831999999999999,-0.048799999999999996,-0.08784,-0.07808,-0.08295999999999999
7,-0.05856,-0.09759999999999999,-0.03903999999999999,0.07808,-0.009760000000000005,-0.06831999999999999,0.00976,-0.06831999999999999,-0.048799999999999996,-0.08784,-0.07808,-0.08784
8,-0.06831999999999999,-0.09759999999999999,-0.02928,0.08295999999999999,-0.019519999999999996,-0.06344,0.01464,-0.05856,-0.03904,-0.08295999999999999,-0.0732,-0.08295999999999999
9,-0.07808,-0.09759999999999999,-0.019519999999999996,0.08784,-0.02928,-0.058559999999999994,0.01952,-0.05856,-0.03904,-0.07808,-0.06831999999999999,-0.07808
10,-0.08784,-0.09759999999999999,-0.009759999999999991,0.09272,-0.039040000000000005,-0.05367999999999999,0.024399999999999998,-0.05856,-0.03904,-0.0732,-0.06344,-0.0732
11,-0.09759999999999999,-0.09759999999999999,0.0,0.09759999999999999,-0.048799999999999996,-0.048799999999999996,0.02928,-0.05856,-0.03904,-0.06831999999999999,-0.05856,-0.06831999999999999
12,-0.09759999999999999,-0.10736,-0.009760000000000005,0.10247999999999999,-0.043919999999999994,-0.05856,0.01952,-0.06831999999999999,-0.048799999999999996,-0.06831999999999999,-0.06344,-0.0732
13,-0.09759999999999999,-0.10736,-0.009760000000000005,0.10247999999999999,-0.043919999999999994,-0.05856,0.01952,-0.06831999999999999,-0.048799999999999996,-0.06831999999999999,-0.06831999999999999,-0.07808
14,-0.09759999999999999,-0.10736,-0.009760000000000005,0.10247999999999999,-0.043919999999999994,-0.05856,0.01952,-0.06831999999999999,-0.048799999999999996,-0.06831999999999999,-0.0732,-0.08295999999999999
15,-0.09759999999999999,-0.10736,-0.009760000000000005,0.10247999999999999,-0.043919999999999994,-0.05856,0.01952,-0.06831999999999999,-0.048799999999999996,-0.06831999999999999,-0.07808,-0.08784
16,-0.09272,-0.09759999999999999,-0.0048799999999999955,0.09516,-0.04392,-0.051239999999999994,0.00976,-0.07808,-0.05856,-0.0732,-0.08784,-0.09759999999999999
17,-0.08784,-0.09759999999999999,-0.009759999999999991,0.09272,-0.039040000000000005,-0.05367999999999999,0.00976,-0.07808,-0.05856,-0.07808,-0.08784,-0.09759999999999999
18,-0.08295999999999999,-0.09759999999999999,-0.01464,0.09028,-0.034159999999999996,-0.056119999999999996,0.00976,-0.07808,-0.05856,-0.08295999999999999,-0.08784,-0.09759999999999999
19,-0.07808,-0.09759999999999999,-0.019519999999999996,0.08784,-0.02928,-0.058559999999999994,0.00976,-0.07808,-0.05856,-0.08784,-0.08784,-0.09759999999999999
20,-0.08295999999999999,-0.10736,-0.024400000000000005,0.09516,-0.029279999999999994,-0.06588,0.00976,-0.07808,-0.048799999999999996,-0.07808,-0.08784,-0.09759999999999999
21,-0.08784,-0.10736,-0.019519999999999996,0.09759999999999999,-0.03416,-0.06344,0.00976,-0.07808,-0.048799999999999996,-0.07808,-0.08784,-0.09759999999999999
22,-0.09272,-0.10736,-0.01464,0.10003999999999999,-0.03904,-0.061,0.00976,-0.07808,-0.048799999999999996,-0.07808,-0.08784,-0.09759999999999999
23,-0.09759999999999999,-0.10736,-0.009760000000000005,0.10247999999999999,-0.043919999999999994,-0.05856,0.00976,-0.07808,-0.048799999999999996,-0.07808,-0.08784,-0.09759999999999999
24,-0.10736,-0.10736,0.0,0.10736,-0.05368,-0.05368,0.01952,-0.07808,-0.05856,-0.07808,-0.08784,-0.08784
25,-0.10736,-0.10736,0.0,0.10736,-0.05368,-0.05368,0.01952,-0.07808,-0.05856,-0.07808,-0.08784,-0.08784
26,-0.10736,-0.10736,0.0,0.10736,-0.05368,-0.05368,0.01952,-0.07808,-0.05856,-0.07808,-0.08784,-0.08784
27,-0.10736,-0.10736,0.0,0.10736,-0.05368,-0.05368,0.01952,-0.07808,-0.05856,-0.07808,-0.08784,-0.08784
28,-0.09272,-0.10736,-0.01464,0.10003999999999999,-0.03904,-0.061,0.00976,-0.08784,-0.05856,-0.08784,-0.08784,-0.09759999999999999
29,-0.08784,-0.10736,-0.019519999999999996,0.09759999999999999,-0.03416,-0.06344,0.00976,-0.08784,-0.05856,-0.08784,-0.08784,-0.09759999999999999
30,-0.08295999999999999,-0.10736,-0.024400000000000005,0.09516,-0.029279999999999994,-0.06588,0.00976,-0.08784,-0.05856,-0.08784,-0.08784,-0.09759999999999999
31,-0.07808,-0.10736,-0.02928,0.09272,-0.024399999999999998,-0.06831999999999999,0.00976,-0.08784,-0.05856,-0.08784,-0.08784,-0.09759999999999999
32,-0.07808,-0.11712,-0.039040000000000005,0.09759999999999999,-0.019519999999999996,-0.07808000000000001,0.00976,-0.08784,-0.05856,-0.08784,-0.07808,-0.09759999999999999
33,-0.07808,-0.11712,-0.039040000000000005,0.09759999999999999,-0.019519999999999996,-0.07808000000000001,0.00976,-0.08784,-0.05856,-0.08784,-0.07808,-0.09759999999999999
34,-0.07808,-0.11712,-0.039040000000000005,0.09759999999999999,-0.019519999999999996,-0.07808000000000001,0.00976,-0.08784,-0.05856,-0.08784,-0.07808,-0.09759999999999999
35,-0.07808,-0.11712,-0.039040000000000005,0.09759999999999999,-0.019519999999999996,-0.07808000000000001,0.00976,-0.08784,-0.05856,-0.08784,-0.07808,-0.09759999999999999
36,-0.08784,-0.11712,-0.02928,0.10248,-0.02928,-0.0732,0.0,-0.08784,-0.06831999999999999,-0.08784,-0.08784,-0.10736
37,-0.08784,-0.11712,-0.02928,0.10248,-0.02928,-0.0732,0.0,-0.08784,-0.06831999999999999,-0.08784,-0.08784,-0.10736
38,-0.08784,-0.11712,-0.02928,0.10248,-0.02928,-0.0732,0.0,-0.08784,-0.06831999999999999,-0.08784,-0.08784,-0.10736
39,-0.08784,-0.11712,-0.02928,0.10248,-0.02928,-0.0732,0.0,-0.08784,-0.06831999999999999,-0.08784,-0.08784,-0.10736
40,-0.09272,-0.11712,-0.024400000000000005,0.10492,-0.034159999999999996,-0.07076,0.00976,-0.08784,-0.05856,-0.07808,-0.08784,-0.09759999999999999
41,-0.09759999999999999,-0.11712,-0.01952000000000001,0.10736,-0.03903999999999999,-0.06832,0.00976,-0.08784,-0.05856,-0.07808,-0.08784,-0.09759999999999999
42,-0.10248,-0.11712,-0.01464,0.10980000000000001,-0.04392,-0.06588,0.00976,-0.08784,-0.05856,-0.07808,-0.08784,-0.09759999999999999
43,-0.10736,-0.11712,-0.009760000000000005,0.11224,-0.048799999999999996,-0.06344,0.00976,-0.08784,-0.05856,-0.07808,-0.08784,-0.09759999999999999
44,-0.10736,-0.12688,-0.019519999999999996,0.11712,-0.04392,-0.07319999999999999,0.00976,-0.08784,-0.06831999999999999,-0.08784,-0.09759999999999999,-0.09759999999999999
45,-0.10736,-0.12688,-0.019519999999999996,0.11712,-0.04392,-0.07319999999999999,0.00976,-0.08784,-0.06831999999999999,-0.08784,-0.09759999999999999,-0.09759999999999999
46,-0.10736,-0.12688,-0.019519999999999996,0.11712,-0.04392,-0.07319999999999999,0.00976,-0.08784,-0.06831999999999999,-0.08784,-0.09759999999999999,-0.09759999999999999
47,-0.10736,-0.12688,-0.019519999999999996,0.11712,-0.04392,-0.07319999999999999,0.00976,-0.08784,-0.06831999999999999,-0.08784,-0.09759999999999999,-0.09759999999999999
48,-0.09759999999999999,-0.11712,-0.01952000000000001,0.10736,-0.03903999999999999,-0.06832,0.0,-0.09759999999999999,-0.05856,-0.07808,-0.09759999999999999,-0.10736
49,-0.09759999999999999,-0.11712,-0.01952000000000001,0.10736,-0.03903999999999999,-0.06832,0.0,-0.09759999999999999,-0.05856,-0.07808,-0.09759999999999999,-0.10736
50,-0.09759999999999999,-0.11712,-0.01952000000000001,0.10736,-0.03903999999999999,-0.06832,0.0,-0.09759999999999999,-0.05856,-0.07808,-0.09759999999999999,-0.10736
51,-0.09759999999999999,-0.11712,-0.01952000000000001,0.10736,-0.03903999999999999,-0.06832,0.0,-0.09759999999999999,-0.05856,-0.07808,-0.09759999999999999,-0.10736
52,-0.08784,-0.11712,-0.02928,0.10248,-0.02928,-0.0732,0.0,-0.09759999999999999,-0.05856,-0.07808,-0.09759999999999999,-0.10736
53,-0.08784,-0.11712,-0.02928,0.10248,-0.02928,-0.0732,0.0,-0.09759999999999999,-0.05856,-0.07808,-0.09759999999999999,-0.10736
54,-0.08784,-0.11712,-0.02928,0.10248,-0.02928,-0.0732,0.0,-0.09759999999999999,-0.05856,-0.07808,-0.09759999999999999,-0.10736
55,-0.08784,-0.11712,-0.02928,0.10248,-0.02928,-0.0732,0.0,-0.09759999999999999,-0.05856,-0.07808,-0.09759999999999999,-0.10736
56,-0.09759999999999999,-0.11712,-0.01952000000000001,0.10736,-0.03903999999999999,-0.06832,0.0,-0.09759999999999999,-0.06831999999999999,-0.07808,-0.09759999999999999,-0.10736
57,-0.09759999999999999,-0.11712,-0.01952000000000001,0.10736,-0.03903999999999999,-0.06832,0.0,-0.09759999999999999,-0.06831999999999999,-0.07808,-0.09759999999999999,-0.10736
58,-0.09759999999999999,-0.11712,-0.01952000000000001,0.10736,-0.03903999999999999,-0.06832,0.0,-0.09759999999999999,-0.06831999999999999,-0.07808,-0.09759999999999999,-0.10736
59,-0.09759999999999999,-0.11712,-0.01952000000000001,0.10736,-0.03903999999999999,-0.06832,0.0,-0.09759999999999999,-0.06831999999999999,-0.07808,-0.09759999999999999,-0.10736
60,-0.09272,-0.10736,-0.01464,0.10003999999999999,-0.03904,-0.061,0.0,-0.10736,-0.06831999999999999,-0.08784,-0.10736,-0.11712
61,-0.08784,-0.10736,-0.019519999999999996,0.09759999999999999,-0.03416,-0.06344,0.0,-0.10736,-0.06831999999999999,-0.08784,-0.10736,-0.11712
62,-0.08295999999999999,-0.10736,-0.024400000000000005,0.09516,-0.029279999999999994,-0.06588,0.0,-0.10736,-0.06831999999999999,-0.08784,-0.10736,-0.11712
63,-0.07808,-0.10736,-0.02928,0.09272,-0.024399999999999998,-0.06831999999999999,0.0,-0.10736,-0.06831999999999999,-0.08784,-0.10736,-0.11712
64,-0.08784,-0.10736,-0.019519999999999996,0.09759999999999999,-0.03416,-0.06344,0.00976,-0.09759999999999999,-0.05856,-0.07808,-0.09759999999999999,-0.11712
65,-0.08784,-0.10736,-0.019519999999999996,0.09759999999999999,-0.03416,-0.06344,0.00976,-0.09759999999999999,-0.05856,-0.07808,-0.09759999999999999,-0.11712
66,-0.08784,-0.10736,-0.019519999999999996,0.09759999999999999,-0.03416,-0.06344,0.00976,-0.09759999999999999,-0.05856,-0.07808,-0.09759999999999999,-0.11712
67,-0.08784,-0.10736,-0.019519999999999996,0.09759999999999999,-0.03416,-0.06344,0.00976,-0.09759999999999999,-0.05856,-0.07808,-0.09759999999999999,-0.11712
68,-0.08784,-0.11712,-0.02928,0.10248,-0.02928,-0.0732,0.0,-0.09759999999999999,-0.06831999999999999,-0.08784,-0.10736,-0.11712
69,-0.08784,-0.11712,-0.02928,0.10248,-0.02928,-0.0732,0.0,-0.09759999999999999,-0.06831999999999999,-0.08784,-0.10736,-0.11712
70,-0.08784,-0.11712,-0.02928,0.10248,-0.02928,-0.0732,0.0,-0.09759999999999999,-0.06831999999999999,-0.08784,-0.10736,-0.11712
71,-0.08784,-0.11712,-0.02928,0.10248,-0.02928,-0.0732,0.0,-0.09759999999999999,-0.06831999999999999,-0.08784,-0.10736,-0.11712
72,-0.09759999999999999,-0.11712,-0.01952000000000001,0.10736,-0.03903999999999999,-0.06832,0.0,-0.10736,-0.05856,-0.07808,-0.10736,-0.10736
73,-0.09759999999999999,-0.11712,-0.01952000000000001,0.10736,-0.03903999999999999,-0.06832,0.0,-0.10736,-0.05856,-0.07808,-0.10736,-0.10736
74,-0.09759999999999999,-0.11712,-0.01952000000000001,0.10736,-0.03903999999999999,-0.06832,0.0,-0.10736,-0.05856,-0.07808,-0.10736,-0.10736
75,-0.09759999999999999,-0.11712,-0.01952000000000001,0.10736,-0.03903999999999999,-0.06832,0.0,-0.10736,-0.05856,-0.07808,-0.10736,-0.10736
76,-0.10736,-0.12688,-0.019519999999999996,0.11712,-0.04392,-0.07319999999999999,0.0,-0.09759999999999999,-0.06831999999999999,-0.08784,-0.10736,-0.09759999999999999
77,-0.10736,-0.12688,-0.019519999999999996,0.11712,-0.04392,-0.07319999999999999,0.0,-0.09759999999999999,-0.06831999999999999,-0.08784,-0.10736,-0.09759999999999999
78,-0.10736,-0.12688,-0.019519999999999996,0.11712,-0.04392,-0.07319999999999999,0.0,-0.09759999999999999,-0.06831999999999999,-0.08784,-0.10736,-0.09759999999999999
79,-0.10736,-0.12688,-0.019519999999999996,0.11712,-0.04392,-0.07319999999999999,0.0,-0.09759999999999999,-0.06831999999999999,-0.08784,-0.10736,-0.09759999999999999
80,-0.10248,-0.12688,-0.02439999999999999,0.11468,-0.039040000000000005,-0.07563999999999999,0.0,-0.09759999999999999,-0.06831999999999999,-0.08784,-0.09759999999999999,-0.10736
81,-0.09759999999999999,-0.12688,-0.02928,0.11223999999999999,-0.034159999999999996,-0.07808,0.0,-0.09759999999999999,-0.06831999999999999,-0.08784,-0.09759999999999999,-0.10736
82,-0.09272,-0.12688,-0.034159999999999996,0.1098,-0.02928,-0.08052,0.0,-0.09759999999999999,-0.06831999999999999,-0.08784,-0.09759999999999999,-0.10736
83,-0.08784,-0.12688,-0.03903999999999999,0.10736,-0.024400000000000005,-0.08295999999999999,0.0,-0.09759999999999999,-0.06831999999999999,-0.08784,-0.09759999999999999,-0.10736
84,-0.07808,-0.11712,-0.039040000000000005,0.09759999999999999,-0.019519999999999996,-0.07808000000000001,0.0,-0.10736,-0.06831999999999999,-0.08784,-0.10736,-0.10736
85,-0.07808,-0.11712,-0.039040000000000005,0.09759999999999999,-0.019519999999999996,-0.07808000000000001,0.0,-0.10736,-0.06831999999999999,-0.08784,-0.10736,-0.10736
86,-0.07808,-0.11712,-0.039040000000000005,0.09759999999999999,-0.019519999999999996,-0.07808000000000001,0.0,-0.10736,-0.06831999999999999,-0.08784,-0.10736,-0.10736
87,-0.07808,-0.11712,-0.039040000000000005,0.09759999999999999,-0.019519999999999996,-0.07808000000000001,0.0,-0.10736,-0.06831999999999999,-0.08784,-0.10736,-0.10736
88,-0.08784,-0.11712,-0.02928,0.10248,-0.02928,-0.0732,0.0,-0.10736,-0.06831999999999999,-0.07808,-0.10248,-0.10736
89,-0.08784,-0.11712,-0.02928,0.10248,-0.02928,-0.0732,0.0,-0.10736,-0.06831999999999999,-0.07808,-0.09759999999999999,-0.10736
90,-0.08784,-0.11712,-0.02928,0.10248,-0.02928,-0.0732,0.0,-0.10736,-0.06831999999999999,-0.07808,-0.09272,-0.10736
91,-0.08784,-0.11712,-0.02928,0.10248,-0.02928,-0.0732,0.0,-0.10736,-0.06831999999999999,-0.07808,-0.08784,-0.10736
92,-0.07808,-0.10736,-0.02928,0.09272,-0.024399999999999998,-0.06831999999999999,0.0,-0.10736,-0.06831999999999999,-0.07808,-0.08784,-0.10736
93,-0.07808,-0.10736,-0.02928,0.09272,-0.024399999999999998,-0.06831999999999999,0.0,-0.10736,-0.06831999999999999,-0.07808,-0.08784,-0.10736
94,-0.07808,-0.10736,-0.02928,0.09272,-0.024399999999999998,-0.06831999999999999,0.0,-0.10736,-0.06831999999999999,-0.07808,-0.08784,-0.10736
95,-0.07808,-0.10736,-0.02928,0.09272,-0.024399999999999998,-0.06831999999999999,0.0,-0.10736,-0.06831999999999999,-0.07808,-0.08784,-0.10736
96,-0.06831999999999999,-0.10736,-0.039040000000000005,0.08784,-0.014639999999999993,-0.0732,0.0,-0.09759999999999999,-0.06831999999999999,-0.07808,-0.08784,-0.11712
97,-0.06831999999999999,-0.10736,-0.039040000000000005,0.08784,-0.014639999999999993,-0.0732,0.0,-0.09759999999999999,-0.06831999999999999,-0.07808,-0.08784,-0.11712
98,-0.06831999999999999,-0.10736,-0.039040000000000005,0.08784,-0.014639999999999993,-0.0732,0.0,-0.09759999999999999,-0.06831999999999999,-0.07808,-0.08784,-0.11712
99,-0.06831999999999999,-0.10736,-0.039040000000000005,0.08784,-0.014639999999999993,-0.0732,0.0,-0.09759999999999999,-0.06831999999999999,-0.07808,-0.08784,-0.11712
100,-0.07808,-0.09759999999999999,-0.019519999999999996,0.08784,-0.02928,-0.058559999999999994,-0.00976,-0.09759999999999999,-0.06831999999999999,-0.07808,-0.08784,-0.10736
101,-0.07808,-0.09759999999999999,-0.019519999999999996,0.08784,-0.02928,-0.058559999999999994,-0.00976,-0.09759999999999999,-0.06831999999999999,-0.07808,-0.08784,-0.10736
102,-0.07808,-0.09759999999999999,-0.019519999999999996,0.08784,-0.02928,-0.058559999999999994,-0.00976,-0.09759999999999999,-0.06831999999999999,-0.07808,-0.08784,-0.10736
103,-0.07808,-0.09759999999999999,-0.019519999999999996,0.08784,-0.02928,-0.058559999999999994,-0.00976,-0.09759999999999999,-0.06831999999999999,-0.07808,-0.08784,-0.10736
104,-0.08784,-0.09759999999999999,-0.009759999999999991,0.09272,-0.039040000000000005,-0.05367999999999999,0.0,-0.09759999999999999,-0.06831999999999999,-0.07808,-0.07808,-0.09759999999999999
105,-0.08784,-0.09759999999999999,-0.009759999999999991,0.09272,-0.039040000000000005,-0.05367999999999999,0.0,-0.09759999999999999,-0.06831999999999999,-0.07808,-0.07808,-0.09759999999999999
106,-0.08784,-0.09759999999999999,-0.009759999999999991,0.09272,-0.039040000000000005,-0.05367999999999999,0.0,-0.09759999999999999,-0.06831999999999999,-0.07808,-0.07808,-0.09759999999999999
107,-0.08784,-0.09759999999999999,-0.009759999999999991,0.09272,-0.039040000000000005,-0.05367999999999999,0.0,-0.09759999999999999,-0.06831999999999999,-0.07808,-0.07808,-0.09759999999999999
108,-0.07808,-0.09759999999999999,-0.019519999999999996,0.08784,-0.02928,-0.058559999999999994,0.0,-0.09759999999999999,-0.06831999999999999,-0.07808,-0.07808,-0.09759999999999999
109,-0.07808,-0.09759999999999999,-0.019519999999999996,0.08784,-0.02928,-0.058559999999999994,0.0,-0.09759999999999999,-0.06831999999999999,-0.07808,-0.07808,-0.09759999999999999
110,-0.07808,-0.09759999999999999,-0.019519999999999996,0.08784,-0.02928,-0.058559999999999994,0.0,-0.09759999999999999,-0.06831999999999999,-0.07808,-0.07808,-0.09759999999999999
111,-0.07808,-0.09759999999999999,-0.019519999999999996,0.08784,-0.02928,-0.058559999999999994,0.0,-0.09759999999999999,-0.06831999999999999,-0.07808,-0.07808,-0.09759999999999999
112,-0.06831999999999999,-0.09759999999999999,-0.02928,0.08295999999999999,-0.019519999999999996,-0.06344,0.0,-0.09759999999999999,-0.06831999999999999,-0.07808,-0.07808,-0.10736
113,-0.06831999999999999,-0.09759999999999999,-0.02928,0.08295999999999999,-0.019519999999999996,-0.06344,0.0,-0.09759999999999999,-0.06831999999999999,-0.07808,-0.07808,-0.10736
114,-0.06831999999999999,-0.09759999999999999,-0.02928,0.08295999999999999,-0.019519999999999996,-0.06344,0.0,-0.09759999999999999,-0.06831999999999999,-0.07808,-0.07808,-0.10736
115,-0.06831999999999999,-0.09759999999999999,-0.02928,0.08295999999999999,-0.019519999999999996,-0.06344,0.0,-0.09759999999999999,-0.06831999999999999,-0.07808,-0.07808,-0.10736
116,-0.05856,-0.09759999999999999,-0.03903999999999999,0.07808,-0.009760000000000005,-0.06831999999999999,0.0,-0.09759999999999999,-0.06831999999999999,-0.06831999999999999,-0.07808,-0.09759999999999999
117,-0.05856,-0.09759999999999999,-0.03903999999999999,0.07808,-0.009760000000000005,-0.06831999999999999,0.0,-0.09759999999999999,-0.06831999999999999,-0.06831999999999999,-0.07808,-0.09759999999999999
118,-0.05856,-0.09759999999999999,-0.03903999999999999,0.07808,-0.009760000000000005,-0.06831999999999999,0.0,-0.09759999999999999,-0.06831999999999999,-0.06831999999999999,-0.07808,-0.09759999999999999
119,-0.05856,-0.09759999999999999,-0.03903999999999999,0.07808,-0.009760000000000005,-0.06831999999999999,0.0,-0.09759999999999999,-0.06831999999999999,-0.06831999999999999,-0.07808,-0.09759999999999999
120,-0.06831999999999999,-0.09759999999999999,-0.02928,0.08295999999999999,-0.019519999999999996,-0.06344,0.00976,-0.08784,-0.05856,-0.06831999999999999,-0.06831999999999999,-0.08784
121,-0.06831999999999999,-0.09759999999999999,-0.02928,0.08295999999999999,-0.019519999999999996,-0.06344,0.00976,-0.08784,-0.05856,-0.06831999999999999,-0.06831999999999999,-0.08784
122,-0.06831999999999999,-0.09759999999999999,-0.02928,0.08295999999999999,-0.019519999999999996,-0.06344,0.00976,-0.08784,-0.05856,-0.06831999999999999,-0.06831999999999999,-0.08784
123,-0.06831999999999999,-0.09759999999999999,-0.02928,0.08295999999999999,-0.019519999999999996,-0.06344,0.00976,-0.08784,-0.05856,-0.06831999999999999,-0.06831999999999999,-0.08784
124,-0.07808,-0.09759999999999999,-0.019519999999999996,0.08784,-0.02928,-0.058559999999999994,0.0,-0.08784,-0.05856,-0.06831999999999999,-0.06831999999999999,-0.08784
125,-0.07808,-0.09759999999999999,-0.019519999999999996,0.08784,-0.02928,-0.058559999999999994,0.0,-0.08784,-0.05856,-0.06831999999999999,-0.06831999999999999,-0.08784
126,-0.07808,-0.09759999999999999,-0.019519999999999996,0.08784,-0.02928,-0.058559999999999994,0.0,-0.08784,-0.05856,-0.06831999999999999,-0.06831999999999999,-0.08784
127,-0.07808,-0.09759999999999999,-0.019519999999999996,0.08784,-0.02928,-0.058559999999999994,0.0,-0.08784,-0.05856,-0.06831999999999999,-0.06831999999999999,-0.08784
128,-0.06344,-0.09759999999999999,-0.034159999999999996,0.08052,-0.01464,-0.06588,-0.00488,-0.09272,-0.06831999999999999,-0.07808,-0.07808,-0.09272
129,-0.05856,-0.09759999999999999,-0.03903999999999999,0.07808,-0.009760000000000005,-0.06831999999999999,-0.00976,-0.09759999999999999,-0.06831999999999999,-0.07808,-0.07808,-0.09759999999999999
130,-0.05368,-0.09759999999999999,-0.043919999999999994,0.07564,-0.004880000000000002,-0.07075999999999999,-0.01464,-0.10248,-0.06831999999999999,-0.07808,-0.07808,-0.10248
131,-0.048799999999999996,-0.09759999999999999,-0.048799999999999996,0.07319999999999999,0.0,-0.07319999999999999,-0.01952,-0.10736,-0.06831999999999999,-0.07808,-0.07808,-0.10736
132,-0.06344,-0.09272,-0.02928,0.07808,-0.017079999999999998,-0.061,-0.01464,-0.09759999999999999,-0.06344,-0.0732,-0.06831999999999999,-0.09272
133,-0.06831999999999999,-0.08784,-0.01952000000000001,0.07808,-0.02439999999999999,-0.053680000000000005,-0.00976,-0.09759999999999999,-0.05856,-0.06831999999999999,-0.06831999999999999,-0.08784
134,-0.0732,-0.08295999999999999,-0.009759999999999991,0.07808,-0.031720000000000005,-0.04635999999999999,-0.00488,-0.09759999999999999,-0.05368,-0.06344,-0.06831999999999999,-0.08295999999999999
135,-0.07808,-0.07808,0.0,0.07808,-0.03904,-0.03904,0.0,-0.09759999999999999,-0.048799999999999996,-0.05856,-0.06831999999999999,-0.07808
136,-0.0732,-0.08784,-0.01464,0.08052000000000001,-0.02928,-0.05124,-0.00976,-0.10736,-0.05368,-0.06344,-0.07808,-0.08784
137,-0.06831999999999999,-0.08784,-0.01952000000000001,0.07808,-0.02439999999999999,-0.053680000000000005,-0.00976,-0.10736,-0.05856,-0.06831999999999999,-0.07808,-0.08784
138,-0.06344,-0.08784,-0.024400000000000005,0.07564,-0.019519999999999996,-0.05612,-0.00976,-0.10736,-0.06344,-0.0732,-0.07808,-0.08784
139,-0.05856,-0.08784,-0.02928,0.0732,-0.01464,-0.05856,-0.00976,-0.10736,-0.06831999999999999,-0.07808,-0.07808,-0.08784
140,-0.05856,-0.09759999999999999,-0.03903999999999999,0.07808,-0.009760000000000005,-0.06831999999999999,0.0,-0.09759999999999999,-0.06831999999999999,-0.07808,-0.06831999999999999,-0.09759999999999999
141,-0.05856,-0.09759999999999999,-0.03903999999999999,0.07808,-0.009760000000000005,-0.06831999999999999,0.0,-0.09759999999999999,-0.06831999999999999,-0.07808,-0.06831999999999999,-0.09759999999999999
142,-0.05856,-0.09759999999999999,-0.03903999999999999,0.07808,-0.009760000000000005,-0.06831999999999999,0.0,-0.09759999999999999,-0.06831999999999999,-0.07808,-0.06831999999999999,-0.09759999999999999
143,-0.05856,-0.09759999999999999,-0.03903999999999999,0.07808,-0.009760000000000005,-0.06831999999999999,0.0,-0.09759999999999999,-0.06831999999999999,-0.07808,-0.06831999999999999,-0.09759999999999999
144,-0.05856,-0.08784,-0.02928,0.0732,-0.01464,-0.05856,0.0,-0.08784,-0.05856,-0.06831999999999999,-0.06831999999999999,-0.08784
145,-0.05856,-0.08784,-0.02928,0.0732,-0.01464,-0.05856,0.0,-0.08784,-0.05856,-0.06831999999999999,-0.06831999999999999,-0.08784
146,-0.05856,-0.08784,-0.02928,0.0732,-0.01464,-0.05856,0.0,-0.08784,-0.05856,-0.06831999999999999,-0.06831999999999999,-0.08784
147,-0.05856,-0.08784,-0.02928,0.0732,-0.01464,-0.05856,0.0,-0.08784,-0.05856,-0.06831999999999999,-0.06831999999999999,-0.08784
148,-0.06831999999999999,-0.08784,-0.01952000000000001,0.07808,-0.02439999999999999,-0.053680000000000005,-0.00976,-0.09759999999999999,-0.05856,-0.05856,-0.06831999999999999,-0.08784
149,-0.06831999999999999,-0.08784,-0.01952000000000001,0.07808,-0.02439999999999999,-0.053680000000000005,-0.00976,-0.09759999999999999,-0.05856,-0.05856,-0.06831999999999999,-0.08784
150,-0.06831999999999999,-0.08784,-0.01952000000000001,0.07808,-0.02439999999999999,-0.053680000000000005,-0.00976,-0.09759999999999999,-0.05856,-0.05856,-0.06831999999999999,-0.08784
151,-0.06831999999999999,-0.08784,-0.01952000000000001,0.07808,-0.02439999999999999,-0.053680000000000005,-0.00976,-0.09759999999999999,-0.05856,-0.05856,-0.06831999999999999,-0.08784
152,-0.05856,-0.08784,-0.02928,0.0732,-0.01464,-0.05856,-0.00976,-0.09759999999999999,-0.05856,-0.06831999999999999,-0.06831999999999999,-0.08784
153,-0.05856,-0.08784,-0.02928,0.0732,-0.01464,-0.05856,-0.00976,-0.09759999999999999,-0.05856,-0.06831999999999999,-0.06831999999999999,-0.08784
154,-0.05856,-0.08784,-0.02928,0.0732,-0.01464,-0.05856,-0.00976,-0.09759999999999999,-0.05856,-0.06831999999999999,-0.06831999999999999,-0.08784
155,-0.05856,-0.08784,-0.02928,0.0732,-0.01464,-0.05856,-0.00976,-0.09759999999999999,-0.05856,-0.06831999999999999,-0.06831999999999999,-0.08784
156,-0.05856,-0.08784,-0.02928,0.0732,-0.01464,-0.05856,-0.00976,-0.10736,-0.06831999999999999,-0.06831999999999999,-0.06831999999999999,-0.08784
157,-0.05856,-0.08784,-0.02928,0.0732,-0.01464,-0.05856,-0.00976,-0.10736,-0.06831999999999999,-0.06831999999999999,-0.06831999999999999,-0.08784
158,-0.05856,-0.08784,-0.02928,0.0732,-0.01464,-0.05856,-0.00976,-0.10736,-0.06831999999999999,-0.06831999999999999,-0.06831999999999999,-0.08784
159,-0.05856,-0.08784,-0.02928,0.0732,-0.01464,-0.05856,-0.00976,-0.10736,-0.06831999999999999,-0.06831999999999999,-0.06831999999999999,-0.08784
160,-0.05856,-0.08784,-0.02928,0.0732,-0.01464,-0.05856,0.0,-0.09759999999999999,-0.06831999999999999,-0.06831999999999999,-0.05856,-0.08784
161,-0.05856,-0.08784,-0.02928,0.0732,-0.01464,-0.05856,0.0,-0.09759999999999999,-0.06831999999999999,-0.06831999999999999,-0.05856,-0.08784
162,-0.05856,-0.08784,-0.02928,0.0732,-0.01464,-0.05856,0.0,-0.09759999999999999,-0.06831999999999999,-0.06831999999999999,-0.05856,-0.08784
163,-0.05856,-0.08784,-0.02928,0.0732,-0.01464,-0.05856,0.0,-0.09759999999999999,-0.06831999999999999,-0.06831999999999999,-0.05856,-0.08784
164,-0.05856,-0.08784,-0.02928,0.0732,-0.01464,-0.05856,-0.00976,-0.09759999999999999,-0.06831999999999999,-0.05856,-0.05856,-0.08784
165,-0.05856,-0.08784,-0.02928,0.0732,-0.01464,-0.05856,-0.00976,-0.09759999999999999,-0.06831999999999999,-0.05856,-0.05856,-0.08784
166,-0.05856,-0.08784,-0.02928,0.0732,-0.01464,-0.05856,-0.00976,-0.09759999999999999,-0.06831999999999999,-0.05856,-0.05856,-0.08784
167,-0.05856,-0.08784,-0.02928,0.0732,-0.01464,-0.05856,-0.00976,-0.09759999999999999,-0.06831999999999999,-0.05856,-0.05856,-0.08784
168,-0.06344,-0.08784,-0.024400000000000005,0.07564,-0.019519999999999996,-0.05612,-0.00976,-0.09759999999999999,-0.05856,-0.05856,-0.06831999999999999,-0.08784
169,-0.06831999999999999,-0.08784,-0.01952000000000001,0.07808,-0.02439999999999999,-0.053680000000000005,-0.00976,-0.09759999999999999,-0.05856,-0.05856,-0.06831999999999999,-0.08784
170,-0.0732,-0.08784,-0.01464,0.08052000000000001,-0.02928,-0.05124,-0.00976,-0.09759999999999999,-0.05856,-0.05856,-0.06831999999999999,-0.08784
171,-0.07808,-0.08784,-0.009760000000000005,0.08296,-0.034159999999999996,-0.0488,-0.00976,-0.09759999999999999,-0.05856,-0.05856,-0.06831999999999999,-0.08784
172,-0.06831999999999999,-0.08784,-0.01952000000000001,0.07808,-0.02439999999999999,-0.053680000000000005,-0.01952,-0.10736,-0.06831999999999999,-0.06831999999999999,-0.07808,-0.09759999999999999
173,-0.05856,-0.08784,-0.02928,0.0732,-0.01464,-0.05856,-0.01952,-0.10736,-0.06831999999999999,-0.06831999999999999,-0.07808,-0.09759999999999999
174,-0.048799999999999996,-0.08784,-0.039040000000000005,0.06831999999999999,-0.0048799999999999955,-0.06344,-0.01952,-0.10736,-0.06831999999999999,-0.06831999999999999,-0.07808,-0.09759999999999999
175,-0.03904,-0.08784,-0.0488,0.06344,0.004880000000000002,-0.06832,-0.01952,-0.10736,-0.06831999999999999,-0.06831999999999999,-0.07808,-0.09759999999999999
176,-0.048799999999999996,-0.08784,-0.039040000000000005,0.06831999999999999,-0.0048799999999999955,-0.06344,-0.00976,-0.09759999999999999,-0.06831999999999999,-0.06831999999999999,-0.06831999999999999,-0.09759999999999999
177,-0.048799999999999996,-0.08784,-0.039040000000000005,0.06831999999999999,-0.0048799999999999955,-0.06344,-0.00976,-0.09759999999999999,-0.06831999999999999,-0.06831999999999999,-0.06831999999999999,-0.09759999999999999
178,-0.048799999999999996,-0.08784,-0.039040000000000005,0.06831999999999999,-0.0048799999999999955,-0.06344,-0.00976,-0.09759999999999999,-0.06831999999999999,-0.06831999999999999,-0.06831999999999999,-0.09759999999999999
179,-0.048799999999999996,-0.08784,-0.039040000000000005,0.06831999999999999,-0.0048799999999999955,-0.06344,-0.00976,-0.09759999999999999,-0.06831999999999999,-0.06831999999999999,-0.06831999999999999,-0.09759999999999999
180,-0.06344,-0.09272,-0.02928,0.07808,-0.017079999999999998,-0.061,-0.00976,-0.09759999999999999,-0.06831999999999999,-0.05856,-0.05856,-0.09759999999999999
181,-0.06831999999999999,-0.09759999999999999,-0.02928,0.08295999999999999,-0.019519999999999996,-0.06344,-0.00976,-0.09759999999999999,-0.06831999999999999,-0.05856,-0.05856,-0.09759999999999999
182,-0.0732,-0.10248,-0.02928,0.08784,-0.02196,-0.06588,-0.00976,-0.09759999999999999,-0.06831999999999999,-0.05856,-0.05856,-0.09759999999999999
183,-0.07808,-0.10736,-0.02928,0.09272,-0.024399999999999998,-0.06831999999999999,-0.00976,-0.09759999999999999,-0.06831999999999999,-0.05856,-0.05856,-0.09759999999999999
184,-0.06831999999999999,-0.09759999999999999,-0.02928,0.08295999999999999,-0.019519999999999996,-0.06344,-0.00976,-0.09759999999999999,-0.05856,-0.05856,-0.05856,-0.08784
185,-0.06831999999999999,-0.09759999999999999,-0.02928,0.08295999999999999,-0.019519999999999996,-0.06344,-0.00976,-0.09759999999999999,-0.05856,-0.05856,-0.05856,-0.08784
186,-0.06831999999999999,-0.09759999999999999,-0.02928,0.08295999999999999,-0.019519999999999996,-0.06344,-0.00976,-0.09759999999999999,-0.05856,-0.05856,-0.05856,-0.08784
187,-0.06831999999999999,-0.09759999999999999,-0.02928,0.08295999999999999,-0.019519999999999996,-0.06344,-0.00976,-0.09759999999999999,-0.05856,-0.05856,-0.05856,-0.08784
188,-0.05856,-0.08784,-0.02928,0.0732,-0.01464,-0.05856,-0.01952,-0.09759999999999999,-0.05856,-0.05856,-0.05856,-0.09759999999999999
189,-0.05856,-0.08784,-0.02928,0.0732,-0.01464,-0.05856,-0.01952,-0.09759999999999999,-0.05856,-0.05856,-0.05856,-0.09759999999999999
190,-0.05856,-0.08784,-0.02928,0.0732,-0.01464,-0.05856,-0.01952,-0.09759999999999999,-0.05856,-0.05856,-0.05856,-0.09759999999999999
191,-0.05856,-0.08784,-0.02928,0.0732,-0.01464,-0.05856,-0.01952,-0.09759999999999999,-0.05856,-0.05856,-0.05856,-0.09759999999999999
192,-0.05856,-0.08784,-0.02928,0.0732,-0.01464,-0.05856,-0.01952,-0.10736,-0.06831999999999999,-0.05856,-0.05856,-0.09759999999999999
193,-0.05856,-0.08784,-0.02928,0.0732,-0.01464,-0.05856,-0.01952,-0.10736,-0.06831999999999999,-0.05856,-0.05856,-0.09759999999999999
194,-0.05856,-0.08784,-0.02928,0.0732,-0.01464,-0.05856,-0.01952,-0.10736,-0.06831999999999999,-0.05856,-0.05856,-0.09759999999999999
195,-0.05856,-0.08784,-0.02928,0.0732,-0.01464,-0.05856,-0.01952,-0.10736,-0.06831999999999999,-0.05856,-0.05856,-0.09759999999999999
196,-0.05856,-0.08784,-0.02928,0.0732,-0.01464,-0.05856,-0.01952,-0.10736,-0.06831999999999999,-0.05856,-0.06831999999999999,-0.09759999999999999
197,-0.05856,-0.08784,-0.02928,0.0732,-0.01464,-0.05856,-0.01952,-0.10736,-0.06831999999999999,-0.05856,-0.06831999999999999,-0.09759999999999999
198,-0.05856,-0.08784,-0.02928,0.0732,-0.01464,-0.05856,-0.01952,-0.10736,-0.06831999999999999,-0.05856,-0.06831999999999999,-0.09759999999999999
199,-0.05368,-0.09272,-0.03904,0.0732,-0.00732,-0.06588,-0.01952,-0.10736,-0.06831999999999999,-0.05856,-0.06831999999999999,-0.09759999999999999
200,-0.05856,-0.08295999999999999,-0.02439999999999999,0.07075999999999999,-0.017080000000000005,-0.05367999999999999,-0.01952,-0.09759999999999999,-0.06831999999999999,-0.05856,-0.05856,-0.09759999999999999
201,-0.05856,-0.08295999999999999,-0.02439999999999999,0.07075999999999999,-0.017080000000000005,-0.05367999999999999,-0.01952,-0.09759999999999999,-0.06831999999999999,-0.05856,-0.05856,-0.09759999999999999
202,-0.06344,-0.08295999999999999,-0.019519999999999996,0.07319999999999999,-0.02196,-0.051239999999999994,-0.01952,-0.09759999999999999,-0.06831999999999999,-0.05856,-0.05856,-0.09759999999999999
203,-0.06344,-0.08295999999999999,-0.019519999999999996,0.07319999999999999,-0.02196,-0.051239999999999994,-0.01952,-0.09759999999999999,-0.06831999999999999,-0.05856,-0.05856,-0.09759999999999999
204,-0.06344,-0.08295999999999999,-0.019519999999999996,0.07319999999999999,-0.02196,-0.051239999999999994,-0.01952,-0.09759999999999999,-0.05856,-0.048799999999999996,-0.05856,-0.09759999999999999
205,-0.06344,-0.07808,-0.01464,0.07075999999999999,-0.024399999999999998,-0.04636,-0.01952,-0.09759999999999999,-0.05856,-0.048799999999999996,-0.05856,-0.09759999999999999
206,-0.05856,-0.07808,-0.019519999999999996,0.06831999999999999,-0.019520000000000003,-0.048799999999999996,-0.01952,-0.09759999999999999,-0.05368,-0.048799999999999996,-0.05368,-0.09759999999999999
207,-0.05856,-0.07808,-0.019519999999999996,0.06831999999999999,-0.019520000000000003,-0.048799999999999996,-0.01952,-0.09272,-0.048799999999999996,-0.048799999999999996,-0.05368,-0.09759999999999999
208,-0.06831999999999999,-0.07808,-0.009760000000000005,0.07319999999999999,-0.029279999999999994,-0.04392,-0.00488,-0.09759999999999999,-0.05856,-0.05368,-0.05856,-0.09272
209,-0.06831999999999999,-0.0732,-0.004880000000000009,0.07075999999999999,-0.03171999999999999,-0.039040000000000005,-0.00488,-0.09759999999999999,-0.05856,-0.04392,-0.05856,-0.09272
210,-0.05856,-0.0732,-0.01464,0.06588,-0.02196,-0.04392,-0.00488,-0.09272,-0.05856,-0.04392,-0.05856,-0.08784
211,-0.05856,-0.0732,-0.01464,0.06588,-0.02196,-0.04392,0.00488,-0.08784,-0.048799999999999996,-0.04392,-0.05856,-0.08784
212,-0.06831999999999999,-0.06831999999999999,0.0,0.06831999999999999,-0.034159999999999996,-0.034159999999999996,0.01464,-0.08295999999999999,-0.04392,-0.02928,-0.048799999999999996,-0.08784
213,-0.06831999999999999,-0.06344,0.0048799999999999955,0.06588,-0.036599999999999994,-0.02928,0.01952,-0.07808,-0.03904,-0.01952,-0.048799999999999996,-0.07808
214,-0.0732,-0.05856,0.01464,0.06588,-0.04392,-0.02196,0.024399999999999998,-0.0732,-0.034159999999999996,-0.01952,-0.048799999999999996,-0.0732
215,-0.0732,-0.05856,0.01464,0.06588,-0.04392,-0.02196,0.02928,-0.06831999999999999,-0.034159999999999996,-0.01952,-0.048799999999999996,-0.0732
216,-0.06344,-0.04392,0.019519999999999996,0.05368,-0.041479999999999996,-0.012200000000000003,0.024399999999999998,-0.06831999999999999,-0.034159999999999996,-0.024399999999999998,-0.03904,-0.07808
217,-0.05368,-0.03904,0.01464,0.04636,-0.034159999999999996,-0.012199999999999999,0.02928,-0.06831999999999999,-0.034159999999999996,-0.024399999999999998,-0.03904,-0.07808
218,-0.048799999999999996,-0.03904,0.009759999999999998,0.04392,-0.029279999999999997,-0.01464,0.02928,-0.06344,-0.02928,-0.024399999999999998,-0.03904,-0.07808
219,-0.04392,-0.03904,0.004880000000000002,0.04148,-0.0244,-0.017079999999999998,0.034159999999999996,-0.06344,-0.02928,-0.024399999999999998,-0.03904,-0.07808
220,-0.04392,-0.03904,0.004880000000000002,0.04148,-0.0244,-0.017079999999999998,0.034159999999999996,-0.05856,-0.02928,-0.024399999999999998,-0.048799999999999996,-0.08295999999999999
221,-0.04392,-0.03904,0.004880000000000002,0.04148,-0.0244,-0.017079999999999998,0.034159999999999996,-0.05856,-0.02928,-0.024399999999999998,-0.048799999999999996,-0.08295999999999999
222,-0.04392,-0.034159999999999996,0.009760000000000005,0.03904,-0.026840000000000003,-0.012199999999999996,0.034159999999999996,-0.05856,-0.02928,-0.01952,-0.04392,-0.08295999999999999
223,-0.02928,-0.02928,0.0,0.02928,-0.01464,-0.01464,0.034159999999999996,-0.05856,-0.02928,-0.01952,-0.03904,-0.08295999999999999
224,-0.03904,-0.01952,0.01952,0.02928,-0.02928,0.0,0.01952,-0.05368,-0.01464,-0.00976,-0.02928,-0.06831999999999999
225,-0.048799999999999996,-0.024399999999999998,0.024399999999999998,0.036599999999999994,-0.036599999999999994,0.0,0.01952,-0.05368,-0.01464,-0.00976,-0.034159999999999996,-0.06831999999999999
226,-0.048799999999999996,-0.024399999999999998,0.024399999999999998,0.036599999999999994,-0.036599999999999994,0.0,0.01952,-0.05856,-0.01464,-0.01464,-0.034159999999999996,-0.06344
227,-0.04392,-0.01952,0.0244,0.03172,-0.03416,0.002440000000000001,0.01952,-0.05856,-0.01952,-0.01464,-0.034159999999999996,-0.06344
228,-0.024399999999999998,-0.01952,0.004879999999999999,0.02196,-0.014639999999999999,-0.00732,0.01464,-0.05856,-0.01952,-0.01464,-0.024399999999999998,-0.05856
229,-0.024399999999999998,-0.024399999999999998,0.0,0.024399999999999998,-0.012199999999999999,-0.012199999999999999,0.00976,-0.06344,-0.01952,-0.01464,-0.024399999999999998,-0.05856
230,-0.02928,-0.024399999999999998,0.004880000000000002,0.02684,-0.01708,-0.009759999999999998,0.00976,-0.06831999999999999,-0.01952,-0.01464,-0.024399999999999998,-0.05856
231,-0.034159999999999996,-0.02928,0.0048799999999999955,0.03172,-0.019519999999999996,-0.012200000000000003,0.01464,-0.06831999999999999,-0.024399999999999998,-0.01464,-0.024399999999999998,-0.05856
232,-0.04392,-0.03904,0.004880000000000002,0.04148,-0.0244,-0.017079999999999998,0.00488,-0.08295999999999999,-0.034159999999999996,-0.01952,-0.03904,-0.06831999999999999
233,-0.03904,-0.03904,0.0,0.03904,-0.01952,-0.01952,-0.00976,-0.08784,-0.034159999999999996,-0.01952,-0.03904,-0.06831999999999999
234,-0.03904,-0.03904,0.0,0.03904,-0.01952,-0.01952,-0.01952,-0.09272,-0.034159999999999996,-0.01952,-0.03904,-0.06831999999999999
235,-0.04392,-0.03904,0.004880000000000002,0.04148,-0.0244,-0.017079999999999998,-0.02928,-0.10736,-0.04392,-0.024399999999999998,-0.04392,-0.0732
236,-0.04392,-0.04392,0.0,0.04392,-0.02196,-0.02196,-0.04392,-0.11712,-0.05368,-0.034159999999999996,-0.048799999999999996,-0.0732
237,-0.034159999999999996,-0.05368,-0.019520000000000003,0.04392,-0.007319999999999997,-0.0366,-0.05856,-0.13176,-0.05856,-0.03904,-0.048799999999999996,-0.0732
238,-0.02928,-0.05368,-0.024399999999999998,0.04148,-0.002440000000000001,-0.03904,-0.06831999999999999,-0.13663999999999998,-0.05856,-0.04392,-0.048799999999999996,-0.07808
239,-0.02928,-0.05368,-0.024399999999999998,0.04148,-0.002440000000000001,-0.03904,-0.0732,-0.13663999999999998,-0.06344,-0.04392,-0.048799999999999996,-0.07808
240,-0.034159999999999996,-0.05368,-0.019520000000000003,0.04392,-0.007319999999999997,-0.0366,-0.0732,-0.13663999999999998,-0.05856,-0.05368,-0.048799999999999996,-0.08295999999999999
241,-0.034159999999999996,-0.05856,-0.024400000000000005,0.04636,-0.0048799999999999955,-0.04148,-0.0732,-0.14152,-0.05856,-0.05368,-0.048799999999999996,-0.08295999999999999
242,-0.034159999999999996,-0.06344,-0.02928,0.048799999999999996,-0.0024399999999999977,-0.04636,-0.0732,-0.14152,-0.06344,-0.05368,-0.05368,-0.08784
243,-0.02928,-0.06831999999999999,-0.03903999999999999,0.048799999999999996,0.0048799999999999955,-0.05367999999999999,-0.0732,-0.14152,-0.06831999999999999,-0.05368,-0.05368,-0.08784
244,-0.024399999999999998,-0.07808,-0.05368,0.051239999999999994,0.01464,-0.06588,-0.08295999999999999,-0.15616,-0.08295999999999999,-0.06344,-0.0732,-0.10248
245,-0.01952,-0.08295999999999999,-0.06344,0.051239999999999994,0.021959999999999997,-0.07319999999999999,-0.08295999999999999,-0.15616,-0.08295999999999999,-0.06344,-0.0732,-0.10248
246,-0.024399999999999998,-0.08784,-0.06344,0.05612,0.019520000000000003,-0.07564,-0.08295999999999999,-0.15128,-0.08295999999999999,-0.06344,-0.0732,-0.10248
247,-0.03904,-0.09272,-0.05368,0.06588,0.00732,-0.0732,-0.0732,-0.14152,-0.07808,-0.06344,-0.0732,-0.10248
248,-0.06831999999999999,-0.11223999999999999,-0.04392,0.09028,-0.012199999999999996,-0.07808,-0.048799999999999996,-0.13663999999999998,-0.06831999999999999,-0.06344,-0.05856,-0.09272
249,-0.07808,-0.11712,-0.039040000000000005,0.09759999999999999,-0.019519999999999996,-0.07808000000000001,-0.04392,-0.13176,-0.06344,-0.05856,-0.05856,-0.09272
250,-0.07808,-0.11712,-0.039040000000000005,0.09759999999999999,-0.019519999999999996,-0.07808000000000001,-0.04392,-0.122,-0.06344,-0.05856,-0.06344,-0.09759999999999999
251,-0.07808,-0.11712,-0.039040000000000005,0.09759999999999999,-0.019519999999999996,-0.07808000000000001,-0.034159999999999996,-0.11712,-0.06344,-0.05856,-0.06831999999999999,-0.09759999999999999
252,-0.10248,-0.11712,-0.01464,0.10980000000000001,-0.04392,-0.06588,-0.024399999999999998,-0.11712,-0.06344,-0.048799999999999996,-0.05856,-0.08784
253,-0.11712,-0.11712,0.0,0.11712,-0.05856,-0.05856,-0.024399999999999998,-0.11712,-0.06344,-0.048799999999999996,-0.05856,-0.08784
254,-0.122,-0.11712,0.0048799999999999955,0.11956,-0.06344,-0.05612,-0.024399999999999998,-0.11712,-0.06344,-0.048799999999999996,-0.05856,-0.08784
255,-0.122,-0.12688,-0.0048799999999999955,0.12444,-0.05856,-0.06588,-0.024399999999999998,-0.122,-0.06344,-0.05856,-0.06831999999999999,-0.09759999999999999
256,-0.11223999999999999,-0.14152,-0.029280000000000014,0.12688,-0.04147999999999999,-0.0854,-0.034159999999999996,-0.12688,-0.07808,-0.05856,-0.0732,-0.10736
257,-0.10248,-0.1464,-0.04392,0.12444,-0.02928,-0.09516,-0.03904,-0.13176,-0.08784,-0.06831999999999999,-0.0732,-0.11223999999999999
258,-0.09759999999999999,-0.1464,-0.04880000000000001,0.122,-0.02439999999999999,-0.0976,-0.04392,-0.14152,-0.08784,-0.06831999999999999,-0.0732,-0.11712
259,-0.08784,-0.15128,-0.06344,0.11956,-0.012200000000000003,-0.10736,-0.048799999999999996,-0.1464,-0.09272,-0.06831999999999999,-0.0732,-0.11712
260,-0.10248,-0.14152,-0.039040000000000005,0.122,-0.03172,-0.09028,-0.05856,-0.14152,-0.09272,-0.0732,-0.08295999999999999,-0.12688
261,-0.10248,-0.14152,-0.039040000000000005,0.122,-0.03172,-0.09028,-0.05856,-0.14152,-0.09272,-0.0732,-0.08295999999999999,-0.12688
262,-0.10248,-0.14152,-0.039040000000000005,0.122,-0.03172,-0.09028,-0.05856,-0.14152,-0.08784,-0.0732,-0.07808,-0.122
263,-0.09759999999999999,-0.14152,-0.043920000000000015,0.11956,-0.02683999999999999,-0.09272000000000001,-0.05856,-0.14152,-0.08784,-0.0732,-0.07808,-0.122
264,-0.10248,-0.1464,-0.04392,0.12444,-0.02928,-0.09516,-0.05368,-0.14152,-0.08784,-0.08295999999999999,-0.08295999999999999,-0.13176
265,-0.09759999999999999,-0.1464,-0.04880000000000001,0.122,-0.02439999999999999,-0.0976,-0.05368,-0.14152,-0.08784,-0.08295999999999999,-0.08295999999999999,-0.12688
266,-0.09759999999999999,-0.15128,-0.053680000000000005,0.12444,-0.021959999999999993,-0.10248,-0.05368,-0.14152,-0.08784,-0.07808,-0.08784,-0.12688
267,-0.10248,-0.15128,-0.048799999999999996,0.12688,-0.026840000000000003,-0.10003999999999999,-0.05368,-0.14152,-0.08784,-0.07808,-0.09272,-0.12688
268,-0.11223999999999999,-0.15128,-0.039040000000000005,0.13176,-0.036599999999999994,-0.09516,-0.04392,-0.13176,-0.07808,-0.06831999999999999,-0.08295999999999999,-0.11712
269,-0.11223999999999999,-0.1464,-0.03416000000000001,0.12932,-0.03903999999999999,-0.09028,-0.03904,-0.12688,-0.07808,-0.06831999999999999,-0.07808,-0.11712
270,-0.11223999999999999,-0.1464,-0.03416000000000001,0.12932,-0.03903999999999999,-0.09028,-0.03904,-0.122,-0.07808,-0.06344,-0.07808,-0.11712
271,-0.11223999999999999,-0.1464,-0.03416000000000001,0.12932,-0.03903999999999999,-0.09028,-0.04392,-0.122,-0.07808,-0.06344,-0.07808,-0.11712
272,-0.13176,-0.1464,-0.014640000000000014,0.13907999999999998,-0.05855999999999999,-0.08052000000000001,-0.024399999999999998,-0.11712,-0.07808,-0.05368,-0.06831999999999999,-0.10736
273,-0.122,-0.13663999999999998,-0.014639999999999986,0.12932,-0.053680000000000005,-0.07563999999999999,-0.034159999999999996,-0.11712,-0.07808,-0.05368,-0.06831999999999999,-0.10736
274,-0.11223999999999999,-0.1464,-0.03416000000000001,0.12932,-0.03903999999999999,-0.09028,-0.02928,-0.11712,-0.07808,-0.06344,-0.06831999999999999,-0.11712
275,-0.10736,-0.1464,-0.039040000000000005,0.12688,-0.034159999999999996,-0.09272,-0.01464,-0.10736,-0.07808,-0.06344,-0.07808,-0.122
276,-0.11223999999999999,-0.14152,-0.029280000000000014,0.12688,-0.04147999999999999,-0.0854,0.00976,-0.0732,-0.0732,-0.06344,-0.07808,-0.13176
277,-0.1464,-0.1464,0.0,0.1464,-0.0732,-0.0732,0.06344,-0.034159999999999996,-0.05856,-0.06831999999999999,-0.08295999999999999,-0.13176
278,-0.19519999999999998,-0.16591999999999998,0.02928,0.18056,-0.11223999999999999,-0.06831999999999999,0.10248,0.0,-0.048799999999999996,-0.0732,-0.10248,-0.1464
279,-0.2196,-0.17079999999999998,0.04880000000000001,0.19519999999999998,-0.13419999999999999,-0.060999999999999985,0.13663999999999998,0.02928,-0.048799999999999996,-0.08295999999999999,-0.122,-0.17568
280,-0.22447999999999999,-0.17568,0.04879999999999998,0.20007999999999998,-0.13663999999999998,-0.06344000000000001,0.16104,0.05368,-0.048799999999999996,-0.10248,-0.14152,-0.19519999999999998
281,-0.20496,-0.17568,0.02928,0.19032,-0.11712,-0.0732,0.17079999999999998,0.09272,-0.04392,-0.09272,-0.14152,-0.20007999999999998
282,-0.19519999999999998,-0.18544,0.009759999999999991,0.19032,-0.10247999999999999,-0.08784,0.18056,0.14152,-0.024399999999999998,-0.07808,-0.13176,-0.19032
283,-0.18544,-0.18544,0.0,0.18544,-0.09272,-0.09272,0.18056,0.17568,0.00488,-0.05856,-0.122,-0.18056
284,-0.1464,-0.15128,-0.0048799999999999955,0.14884,-0.07076,-0.07808,0.16104,0.20984,0.048799999999999996,-0.00976,-0.0732,-0.15128
285,-0.10248,-0.11223999999999999,-0.009759999999999991,0.10736,-0.046360000000000005,-0.06099999999999999,0.13176,0.25376,0.13663999999999998,0.07808,0.0,-0.09759999999999999
286,-0.06344,-0.05856,0.0048799999999999955,0.061,-0.034159999999999996,-0.026840000000000003,0.11712,0.34648,0.22935999999999998,0.17568,0.09272,-0.024399999999999998
287,0.01952,0.00488,-0.01464,-0.012199999999999999,0.017079999999999998,-0.00488,0.08784,0.46359999999999996,0.32696,0.28304,0.19032,0.06344
288,0.16591999999999998,0.09759999999999999,-0.06831999999999999,-0.13176,0.11711999999999999,0.01464,0.0,0.49776,0.4148,0.40015999999999996,0.29768,0.16104
289,0.28792,0.18056,-0.10736000000000001,-0.23424,0.19764,0.036599999999999994,-0.11223999999999999,0.42944,0.50752,0.53192,0.4148,0.25864
290,0.38552,0.27815999999999996,-0.10736000000000001,-0.33183999999999997,0.24644,0.08539999999999998,-0.20007999999999998,0.35624,0.60512,0.6636799999999999,0.5514399999999999,0.38064
291,0.5124,0.38552,-0.12688,-0.44895999999999997,0.31964,0.12932,-0.26352,0.30744,0.71248,0.8003199999999999,0.69296,0.488
292,0.64416,0.50264,-0.14151999999999998,-0.5733999999999999,0.39283999999999997,0.18056,-0.34648,0.21472,0.83936,0.94672,0.83448,0.60512
293,0.77104,0.64904,-0.122,-0.71004,0.44652,0.26352,-0.44408,0.048799999999999996,0.96136,1.1028799999999999,1.0004,0.74664
294,0.87352,0.81984,-0.05367999999999995,-0.84668,0.46359999999999996,0.38308000000000003,-0.51728,-0.08295999999999999,1.098,1.2688,1.16632,0.8979199999999999
295,0.98088,0.96136,-0.019519999999999982,-0.97112,0.5002,0.47092,-0.60024,-0.21472,1.17608,1.40056,1.30784,1.0394400000000001
296,1.06384,1.0492000000000001,-0.014639999999999764,-1.05652,0.5392399999999998,0.5172800000000002,-0.69784,-0.33671999999999996,1.21512,1.464,1.41032,1.13216
297,1.11752,1.0931199999999999,-0.0244000000000002,-1.1053199999999999,0.5709600000000001,0.5343599999999998,-0.7759199999999999,-0.40503999999999996,1.19072,1.45424,1.43472,1.18096
298,1.1468,1.098,-0.048799999999999955,-1.1224,0.5978,0.5246000000000001,-0.86376,-0.50752,1.08824,1.38592,1.42008,1.1956
299,1.098,1.06384,-0.03416000000000019,-1.0809199999999999,0.5660800000000001,0.5148399999999999,-0.96136,-0.69296,0.89304,1.22976,1.33224,1.16632
300,1.01992,0.9125599999999999,-0.10736000000000001,-0.96624,0.5636399999999999,0.40259999999999996,-0.99064,-0.85888,0.63928,0.96624,1.13216,1.01504
301,0.8784,0.68808,-0.19031999999999993,-0.7832399999999999,0.53436,0.24888000000000005,-0.94672,-1.00528,0.39039999999999997,0.6734399999999999,0.87352,0.8003199999999999
302,0.6636799999999999,0.47336,-0.19031999999999993,-0.5685199999999999,0.42699999999999994,0.14152000000000003,-0.8979199999999999,-1.20048,0.18544,0.42944,0.63928,0.59048
303,0.44895999999999997,0.26839999999999997,-0.18056,-0.35868,0.31476,0.04391999999999999,-0.85888,-1.39568,-0.01952,0.21472,0.42944,0.42456
304,0.29768,0.05856,-0.23912,-0.17812,0.26839999999999997,-0.09028,-0.83448,-1.5274400000000001,-0.25376,0.00488,0.21472,0.23912
305,0.1464,-0.122,-0.26839999999999997,-0.012200000000000003,0.2074,-0.19519999999999998,-0.7856799999999999,-1.60552,-0.44895999999999997,-0.18056,0.03904,0.09272
306,0.03904,-0.20984,-0.24888,0.0854,0.14396,-0.22936,-0.76128,-1.5274400000000001,-0.5465599999999999,-0.27327999999999997,-0.06344,0.00488
307,0.01464,-0.26352,-0.27815999999999996,0.12444,0.14639999999999997,-0.27083999999999997,-0.732,-1.3371199999999999,-0.5611999999999999,-0.31232,-0.12688,-0.06344
308,-0.00488,-0.3172,-0.31232,0.16104,0.15372,-0.31476,-0.68808,-1.18096,-0.58072,-0.35624,-0.18056,-0.14152
309,-0.05368,-0.35136,-0.29768,0.20252,0.122,-0.32452000000000003,-0.6344,-1.07848,-0.5563199999999999,-0.35624,-0.20984,-0.17079999999999998
310,-0.06344,-0.33183999999999997,-0.26839999999999997,0.19763999999999998,0.10247999999999999,-0.30011999999999994,-0.58072,-0.9516,-0.48312,-0.32696,-0.20007999999999998,-0.18056
311,-0.06831999999999999,-0.3172,-0.24888,0.19276,0.09028,-0.28303999999999996,-0.5465599999999999,-0.8296,-0.4148,-0.28792,-0.18056,-0.18056
312,-0.08784,-0.29768,-0.20984,0.19276,0.061,-0.25376,-0.49288,-0.73688,-0.36112,-0.25376,-0.17568,-0.17079999999999998
313,-0.10248,-0.27327999999999997,-0.17079999999999995,0.18788,0.03415999999999998,-0.22203999999999996,-0.40992,-0.61976,-0.30256,-0.20984,-0.15616,-0.15128
314,-0.10248,-0.244,-0.14151999999999998,0.17324,0.019519999999999996,-0.19276,-0.33183999999999997,-0.49288,-0.244,-0.17079999999999998,-0.122,-0.14152
315,-0.10736,-0.19519999999999998,-0.08783999999999999,0.15128,-0.009760000000000005,-0.14151999999999998,-0.25376,-0.39039999999999997,-0.19519999999999998,-0.13176,-0.08784,-0.12688
316,-0.10736,-0.15616,-0.048799999999999996,0.13176,-0.02928,-0.10247999999999999,-0.19519999999999998,-0.31232,-0.15616,-0.09759999999999999,-0.06831999999999999,-0.11223999999999999
317,-0.08784,-0.14152,-0.053680000000000005,0.11468,-0.017079999999999998,-0.0976,-0.16104,-0.26352,-0.14152,-0.08784,-0.06344,-0.10736
318,-0.08784,-0.13663999999999998,-0.04879999999999998,0.11223999999999999,-0.01952000000000001,-0.09271999999999998,-0.1464,-0.22447999999999999,-0.12688,-0.07808,-0.05368,-0.09759999999999999
319,-0.08295999999999999,-0.13176,-0.048799999999999996,0.10735999999999998,-0.017079999999999998,-0.09028,-0.13176,-0.19519999999999998,-0.10736,-0.06831999999999999,-0.048799999999999996,-0.08784
320,-0.08295999999999999,-0.13176,-0.048799999999999996,0.10735999999999998,-0.017079999999999998,-0.09028,-0.11223999999999999,-0.16104,-0.09759999999999999,-0.06344,-0.048799999999999996,-0.08784
321,-0.07808,-0.13663999999999998,-0.05855999999999999,0.10735999999999998,-0.009760000000000005,-0.09759999999999999,-0.09272,-0.14152,-0.08784,-0.05368,-0.04392,-0.08295999999999999
322,-0.08784,-0.13663999999999998,-0.04879999999999998,0.11223999999999999,-0.01952000000000001,-0.09271999999999998,-0.05856,-0.10736,-0.07808,-0.048799999999999996,-0.04392,-0.0732
323,-0.07808,-0.13176,-0.05367999999999999,0.10491999999999999,-0.012200000000000003,-0.09272,-0.034159999999999996,-0.09272,-0.06831999999999999,-0.048799999999999996,-0.04392,-0.08295999999999999
324,-0.08784,-0.11712,-0.02928,0.10248,-0.02928,-0.0732,-0.024399999999999998,-0.09272,-0.06831999999999999,-0.03904,-0.034159999999999996,-0.0732
325,-0.08784,-0.11223999999999999,-0.02439999999999999,0.10003999999999999,-0.031720000000000005,-0.06831999999999999,-0.01952,-0.08295999999999999,-0.05856,-0.034159999999999996,-0.03904,-0.0732
326,-0.08295999999999999,-0.10736,-0.024400000000000005,0.09516,-0.029279999999999994,-0.06588,-0.024399999999999998,-0.06831999999999999,-0.05856,-0.034159999999999996,-0.03904,-0.0732
327,-0.08295999999999999,-0.10736,-0.024400000000000005,0.09516,-0.029279999999999994,-0.06588,-0.034159999999999996,-0.06344,-0.06344,-0.02928,-0.03904,-0.0732
328,-0.0732,-0.09759999999999999,-0.02439999999999999,0.0854,-0.024400000000000005,-0.06099999999999999,-0.034159999999999996,-0.05856,-0.05368,-0.02928,-0.02928,-0.08295999999999999
329,-0.0732,-0.09759999999999999,-0.02439999999999999,0.0854,-0.024400000000000005,-0.06099999999999999,-0.02928,-0.048799999999999996,-0.048799999999999996,-0.024399999999999998,-0.034159999999999996,-0.08295999999999999
330,-0.0732,-0.09759999999999999,-0.02439999999999999,0.0854,-0.024400000000000005,-0.06099999999999999,-0.024399999999999998,-0.03904,-0.048799999999999996,-0.024399999999999998,-0.034159999999999996,-0.08295999999999999
331,-0.0732,-0.10248,-0.02928,0.08784,-0.02196,-0.06588,-0.01464,-0.03904,-0.048799999999999996,-0.02928,-0.034159999999999996,-0.08295999999999999
332,-0.0732,-0.11223999999999999,-0.03903999999999999,0.09272,-0.017080000000000005,-0.07563999999999999,-0.01952,-0.02928,-0.05368,-0.01952,-0.04392,-0.08295999999999999
333,-0.0732,-0.11223999999999999,-0.03903999999999999,0.09272,-0.017080000000000005,-0.07563999999999999,-0.01464,-0.02928,-0.04392,-0.01952,-0.03904,-0.08295999999999999
334,-0.08784,-0.10736,-0.019519999999999996,0.09759999999999999,-0.03416,-0.06344,-0.01464,-0.02928,-0.04392,-0.01952,-0.034159999999999996,-0.08295999999999999
335,-0.07808,-0.10736,-0.02928,0.09272,-0.024399999999999998,-0.06831999999999999,-0.01464,-0.02928,-0.04392,-0.01952,-0.034159999999999996,-0.08295999999999999
336,-0.08784,-0.09759999999999999,-0.009759999999999991,0.09272,-0.039040000000000005,-0.05367999999999999,-0.00488,-0.024399999999999998,-0.04392,-0.01952,-0.024399999999999998,-0.0732
337,-0.08784,-0.09759999999999999,-0.009759999999999991,0.09272,-0.039040000000000005,-0.05367999999999999,-0.00488,-0.01464,-0.03904,-0.01464,-0.024399999999999998,-0.0732
338,-0.08295999999999999,-0.09272,-0.009760000000000005,0.08784,-0.036599999999999994,-0.05124,-0.00488,-0.00976,-0.034159999999999996,-0.01464,-0.01952,-0.0732
339,-0.08295999999999999,-0.09272,-0.009760000000000005,0.08784,-0.036599999999999994,-0.05124,-0.00488,-0.00976,-0.02928,-0.01464,-0.01952,-0.0732
340,-0.08295999999999999,-0.08295999999999999,0.0,0.08295999999999999,-0.041479999999999996,-0.041479999999999996,0.0,-0.00488,-0.02928,-0.00976,-0.01952,-0.0732
341,-0.08295999999999999,-0.08295999999999999,0.0,0.08295999999999999,-0.041479999999999996,-0.041479999999999996,0.00488,0.0,-0.02928,-0.00488,-0.01952,-0.0732
342,-0.07808,-0.08295999999999999,-0.0048799999999999955,0.08052,-0.0366,-0.043919999999999994,0.00488,0.0,-0.02928,-0.00488,-0.01952,-0.0732
343,-0.06831999999999999,-0.08295999999999999,-0.01464,0.07563999999999999,-0.026839999999999996,-0.048799999999999996,0.00488,0.0,-0.02928,0.0,-0.01952,-0.0732
344,-0.05856,-0.07808,-0.019519999999999996,0.06831999999999999,-0.019520000000000003,-0.048799999999999996,-0.00488,-0.00488,-0.024399999999999998,-0.00976,-0.024399999999999998,-0.08295999999999999
345,-0.03904,-0.07808,-0.03904,0.05856,0.0,-0.05856,-0.00488,-0.00488,-0.024399999999999998,-0.01464,-0.024399999999999998,-0.08295999999999999
346,-0.048799999999999996,-0.07808,-0.02928,0.06344,-0.009759999999999998,-0.05368,-0.00976,0.00488,-0.024399999999999998,-0.01464,-0.01952,-0.08295999999999999
347,-0.048799999999999996,-0.07808,-0.02928,0.06344,-0.009759999999999998,-0.05368,-0.00976,0.00488,-0.01952,-0.01464,-0.01952,-0.08295999999999999
348,-0.05368,-0.07808,-0.024399999999999998,0.06588,-0.01464,-0.051239999999999994,0.00488,0.01952,-0.01952,-0.00976,-0.01464,-0.0732
349,-0.05856,-0.07808,-0.019519999999999996,0.06831999999999999,-0.019520000000000003,-0.048799999999999996,0.00976,0.01952,-0.01464,-0.00976,-0.00976,-0.0732
350,-0.06344,-0.0732,-0.009760000000000005,0.06831999999999999,-0.026839999999999996,-0.04148,0.00976,0.01952,-0.01464,-0.00976,-0.00976,-0.0732
351,-0.06831999999999999,-0.0732,-0.004880000000000009,0.07075999999999999,-0.03171999999999999,-0.039040000000000005,0.00976,0.02928,-0.00976,-0.00488,-0.00976,-0.06831999999999999
352,-0.05856,-0.06831999999999999,-0.009759999999999991,0.06344,-0.024400000000000005,-0.03903999999999999,0.0,0.034159999999999996,-0.00976,-0.00488,0.0,-0.05856
353,-0.06344,-0.06831999999999999,-0.0048799999999999955,0.06588,-0.02928,-0.036599999999999994,0.0,0.034159999999999996,-0.00976,0.0,0.0,-0.05856
354,-0.06344,-0.06831999999999999,-0.0048799999999999955,0.06588,-0.02928,-0.036599999999999994,0.00488,0.034159999999999996,-0.00976,0.00488,0.0,-0.05856
355,-0.05856,-0.06831999999999999,-0.009759999999999991,0.06344,-0.024400000000000005,-0.03903999999999999,0.00488,0.04392,-0.00976,0.00488,0.0,-0.05856
356,-0.05368,-0.06831999999999999,-0.014639999999999993,0.061,-0.019520000000000003,-0.04147999999999999,0.0,0.04392,0.0,0.00488,0.00976,-0.05856
357,-0.05368,-0.06344,-0.009759999999999998,0.05856,-0.02196,-0.036599999999999994,0.0,0.05368,0.0,0.00976,0.00976,-0.05368
358,-0.05856,-0.06344,-0.0048799999999999955,0.061,-0.026840000000000003,-0.034159999999999996,0.00488,0.05856,0.00488,0.01464,0.01464,-0.05368
359,-0.05856,-0.06344,-0.0048799999999999955,0.061,-0.026840000000000003,-0.034159999999999996,0.00488,0.05856,0.00488,0.024399999999999998,0.01464,-0.05368
360,-0.05368,-0.06344,-0.009759999999999998,0.05856,-0.02196,-0.036599999999999994,0.00488,0.05856,0.00488,0.024399999999999998,0.00488,-0.06344
361,-0.048799999999999996,-0.05856,-0.009760000000000005,0.05368,-0.019519999999999996,-0.03416,0.00488,0.06344,0.00488,0.024399999999999998,0.00488,-0.05856
362,-0.048799999999999996,-0.05856,-0.009760000000000005,0.05368,-0.019519999999999996,-0.03416,0.00488,0.06831999999999999,0.00976,0.024399999999999998,0.00976,-0.05368
363,-0.048799999999999996,-0.05856,-0.009760000000000005,0.05368,-0.019519999999999996,-0.03416,0.00976,0.06831999999999999,0.00976,0.02928,0.00976,-0.048799999999999996
364,-0.03904,-0.048799999999999996,-0.009759999999999998,0.04392,-0.01464,-0.029279999999999997,0.00976,0.0732,0.01464,0.02928,0.024399999999999998,-0.048799999999999996
365,-0.034159999999999996,-0.04392,-0.009760000000000005,0.03904,-0.012199999999999996,-0.026840000000000003,0.01464,0.07808,0.01464,0.02928,0.024399999999999998,-0.048799999999999996
366,-0.034159999999999996,-0.04392,-0.009760000000000005,0.03904,-0.012199999999999996,-0.026840000000000003,0.01464,0.08295999999999999,0.01952,0.034159999999999996,0.024399999999999998,-0.048799999999999996
367,-0.034159999999999996,-0.04392,-0.009760000000000005,0.03904,-0.012199999999999996,-0.026840000000000003,0.01952,0.08784,0.01952,0.04392,0.02928,-0.048799999999999996
368,-0.03904,-0.048799999999999996,-0.009759999999999998,0.04392,-0.01464,-0.029279999999999997,0.02928,0.10248,0.01952,0.04392,0.02928,-0.04392
369,-0.03904,-0.048799999999999996,-0.009759999999999998,0.04392,-0.01464,-0.029279999999999997,0.02928,0.10248,0.024399999999999998,0.04392,0.02928,-0.04392
370,-0.04392,-0.04392,0.0,0.04392,-0.02196,-0.02196,0.02928,0.10736,0.024399999999999998,0.04392,0.02928,-0.034159999999999996
371,-0.048799999999999996,-0.04392,0.0048799999999999955,0.04636,-0.026839999999999996,-0.019520000000000003,0.02928,0.11223999999999999,0.024399999999999998,0.04392,0.02928,-0.02928
372,-0.034159999999999996,-0.048799999999999996,-0.01464,0.041479999999999996,-0.009759999999999998,-0.03172,0.02928,0.10736,0.024399999999999998,0.048799999999999996,0.03904,-0.03904
373,-0.02928,-0.04392,-0.01464,0.0366,-0.00732,-0.02928,0.02928,0.11223999999999999,0.024399999999999998,0.05368,0.03904,-0.03904
374,-0.02928,-0.04392,-0.01464,0.0366,-0.00732,-0.02928,0.02928,0.11712,0.024399999999999998,0.05368,0.03904,-0.03904
375,-0.024399999999999998,-0.04392,-0.019520000000000003,0.034159999999999996,-0.0024399999999999977,-0.03172,0.034159999999999996,0.122,0.02928,0.05368,0.03904,-0.03904
376,-0.00976,-0.04392,-0.03416,0.02684,0.0122,-0.03904,0.024399999999999998,0.12688,0.02928,0.05368,0.048799999999999996,-0.03904
377,-0.00976,-0.034159999999999996,-0.024399999999999998,0.021959999999999997,0.007319999999999998,-0.029279999999999997,0.024399999999999998,0.13176,0.02928,0.05368,0.048799999999999996,-0.034159999999999996
378,-0.01464,-0.04392,-0.02928,0.02928,0.00732,-0.0366,0.024399999999999998,0.13663999999999998,0.034159999999999996,0.05856,0.05368,-0.034159999999999996
379,-0.01464,-0.04392,-0.02928,0.02928,0.00732,-0.0366,0.024399999999999998,0.14152,0.03904,0.06344,0.06344,-0.02928
380,-0.01464,-0.024399999999999998,-0.009759999999999998,0.01952,-0.002440000000000001,-0.017079999999999998,0.034159999999999996,0.1464,0.03904,0.06831999999999999,0.05368,-0.01952
381,-0.01464,-0.024399999999999998,-0.009759999999999998,0.01952,-0.002440000000000001,-0.017079999999999998,0.03904,0.15128,0.03904,0.06831999999999999,0.05368,-0.01952
382,-0.00976,-0.024399999999999998,-0.014639999999999999,0.017079999999999998,0.0024399999999999995,-0.01952,0.03904,0.16591999999999998,0.04392,0.06831999999999999,0.06344,-0.01464
383,-0.00976,-0.01952,-0.00976,0.01464,0.0,-0.01464,0.034159999999999996,0.17079999999999998,0.04392,0.0732,0.06831999999999999,-0.01464
384,-0.01464,-0.00976,0.004880000000000001,0.012199999999999999,-0.009760000000000001,-0.0024399999999999995,0.034159999999999996,0.17568,0.05856,0.07808,0.06831999999999999,-0.01464
385,-0.00488,-0.00488,0.0,0.00488,-0.00244,-0.00244,0.03904,0.18056,0.05856,0.08295999999999999,0.0732,-0.00976
386,0.0,0.0,0.0,-0.0,0.0,0.0,0.03904,0.19032,0.06831999999999999,0.09759999999999999,0.08295999999999999,-0.00976
387,0.00976,0.0,-0.00976,-0.00488,0.00976,-0.00488,0.03904,0.20496,0.0732,0.10248,0.08295999999999999,-0.00488
388,0.01464,0.00976,-0.004880000000000001,-0.012199999999999999,0.009760000000000001,0.0024399999999999995,0.03904,0.20496,0.06831999999999999,0.10248,0.09272,-0.00976
389,0.01464,0.01464,0.0,-0.01464,0.00732,0.00732,0.03904,0.20984,0.0732,0.10736,0.09272,-0.00976
390,0.01464,0.01952,0.004879999999999999,-0.017079999999999998,0.004880000000000001,0.012199999999999999,0.03904,0.22447999999999999,0.07808,0.11223999999999999,0.09759999999999999,0.0
391,0.00488,0.01952,0.01464,-0.012199999999999999,-0.00488,0.017079999999999998,0.04392,0.23424,0.07808,0.11712,0.10248,0.0
392,0.01464,0.00976,-0.004880000000000001,-0.012199999999999999,0.009760000000000001,0.0024399999999999995,0.034159999999999996,0.23424,0.07808,0.11223999999999999,0.10736,0.00488
393,0.01464,0.00976,-0.004880000000000001,-0.012199999999999999,0.009760000000000001,0.0024399999999999995,0.034159999999999996,0.23424,0.07808,0.11223999999999999,0.10736,0.00488
394,0.024399999999999998,0.01952,-0.004879999999999999,-0.02196,0.014639999999999999,0.00732,0.034159999999999996,0.24888,0.08295999999999999,0.122,0.11223999999999999,0.01464
395,0.02928,0.024399999999999998,-0.004880000000000002,-0.02684,0.01708,0.009759999999999998,0.03904,0.25864,0.08784,0.13176,0.11712,0.01952
396,0.03904,0.02928,-0.009759999999999998,-0.034159999999999996,0.024399999999999998,0.009760000000000001,0.02928,0.27327999999999997,0.08784,0.122,0.122,0.02928
397,0.048799999999999996,0.034159999999999996,-0.01464,-0.041479999999999996,0.03172,0.009759999999999998,0.02928,0.28304,0.09759999999999999,0.12688,0.12688,0.034159999999999996
398,0.05368,0.03904,-0.01464,-0.04636,0.034159999999999996,0.012199999999999999,0.024399999999999998,0.2928,0.09759999999999999,0.12688,0.13176,0.034159999999999996
399,0.06344,0.04392,-0.019519999999999996,-0.05368,0.041479999999999996,0.012200000000000003,0.024399999999999998,0.29768,0.10248,0.13176,0.13176,0.03904
400,0.05856,0.06344,0.0048799999999999955,-0.061,0.026840000000000003,0.034159999999999996,0.03904,0.32208,0.122,0.1464,0.15128,0.05368
401,0.05856,0.06831999999999999,0.009759999999999991,-0.06344,0.024400000000000005,0.03903999999999999,0.03904,0.34648,0.13663999999999998,0.15616,0.15616,0.06344
402,0.06831999999999999,0.0732,0.004880000000000009,-0.07075999999999999,0.03171999999999999,0.039040000000000005,0.03904,0.35136,0.14152,0.17079999999999998,0.16591999999999998,0.06344
403,0.0732,0.08295999999999999,0.009759999999999991,-0.07808,0.031720000000000005,0.04635999999999999,0.03904,0.366,0.14152,0.18056,0.17079999999999998,0.06831999999999999
404,0.08784,0.08784,0.0,-0.08784,0.04392,0.04392,0.02928,0.37576,0.1464,0.17568,0.17079999999999998,0.06344
405,0.08784,0.09759999999999999,0.009759999999999991,-0.09272,0.039040000000000005,0.05367999999999999,0.02928,0.39039999999999997,0.15128,0.19032,0.18056,0.0732
406,0.10248,0.10248,0.0,-0.10248,0.05124,0.05124,0.02928,0.40503999999999996,0.15616,0.20007999999999998,0.19032,0.08295999999999999
407,0.122,0.10736,-0.01464,-0.11468,0.06831999999999999,0.04636,0.02928,0.41968,0.16104,0.20496,0.19519999999999998,0.08784
408,0.11712,0.10736,-0.009760000000000005,-0.11224,0.06344,0.048799999999999996,0.02928,0.43432,0.16591999999999998,0.2196,0.20007999999999998,0.09272
409,0.11712,0.11223999999999999,-0.004880000000000009,-0.11468,0.061000000000000006,0.05367999999999999,0.02928,0.44895999999999997,0.17568,0.22935999999999998,0.21472,0.10248
410,0.11712,0.12688,0.009759999999999991,-0.122,0.053680000000000005,0.06831999999999999,0.034159999999999996,0.46848,0.18544,0.23912,0.22447999999999999,0.10736
411,0.13176,0.13663999999999998,0.0048799999999999955,-0.13419999999999999,0.06344,0.07075999999999999,0.034159999999999996,0.48312,0.19519999999999998,0.24888,0.23424,0.122
412,0.1464,0.13663999999999998,-0.009760000000000019,-0.14151999999999998,0.07808000000000001,0.06343999999999998,0.02928,0.49776,0.21472,0.26839999999999997,0.244,0.13176
413,0.1464,0.1464,0.0,-0.1464,0.0732,0.0732,0.02928,0.52216,0.2196,0.27815999999999996,0.25376,0.14152
414,0.1464,0.15616,0.009759999999999991,-0.15128,0.06832,0.08295999999999999,0.02928,0.5367999999999999,0.22935999999999998,0.28792,0.26839999999999997,0.16104
415,0.16591999999999998,0.16591999999999998,0.0,-0.16591999999999998,0.08295999999999999,0.08295999999999999,0.02928,0.5514399999999999,0.23912,0.2928,0.28304,0.17568
416,0.19519999999999998,0.18544,-0.009759999999999991,-0.19032,0.10247999999999999,0.08784,0.024399999999999998,0.5611999999999999,0.23912,0.2928,0.2928,0.18056
417,0.20496,0.20007999999999998,-0.004880000000000023,-0.20251999999999998,0.10492000000000001,0.09759999999999998,0.01952,0.57096,0.24888,0.30256,0.29768,0.18544
418,0.2196,0.20984,-0.009759999999999991,-0.21472,0.11467999999999999,0.10004,0.01464,0.5856,0.26352,0.31232,0.30256,0.19032
419,0.23424,0.22935999999999998,-0.004880000000000023,-0.2318,0.11956000000000001,0.11223999999999998,0.00488,0.59536,0.27327999999999997,0.33183999999999997,0.31232,0.19519999999999998
420,0.23424,0.23912,0.0048799999999999955,-0.23668,0.11468,0.122,0.01464,0.61976,0.2928,0.35624,0.32696,0.20984
421,0.22935999999999998,0.244,0.014640000000000014,-0.23668,0.10735999999999998,0.12932,0.01464,0.64416,0.31232,0.366,0.34648,0.22447999999999999
422,0.22935999999999998,0.25864,0.02928,-0.244,0.10003999999999999,0.14395999999999998,0.01464,0.6636799999999999,0.32696,0.39039999999999997,0.37088,0.244
423,0.22935999999999998,0.27815999999999996,0.04879999999999998,-0.25376,0.09028,0.16347999999999996,0.01464,0.6831999999999999,0.34648,0.40992,0.38552,0.26839999999999997
424,0.244,0.2928,0.04880000000000001,-0.26839999999999997,0.09759999999999999,0.1708,0.0,0.69296,0.34648,0.40992,0.40015999999999996,0.28792
425,0.26352,0.30256,0.03904000000000002,-0.28303999999999996,0.11223999999999998,0.1708,-0.00488,0.69784,0.366,0.42456,0.4148,0.2928
426,0.28304,0.32208,0.039039999999999964,-0.30256,0.12200000000000003,0.18055999999999997,-0.00488,0.7076,0.37088,0.4392,0.42944,0.30256
427,0.2928,0.33671999999999996,0.04391999999999996,-0.31476,0.12444000000000002,0.19031999999999996,-0.00488,0.71736,0.39039999999999997,0.45383999999999997,0.44408,0.3172
428,0.30256,0.34159999999999996,0.039039999999999964,-0.32208,0.13176000000000002,0.19031999999999996,0.0,0.72712,0.40015999999999996,0.45871999999999996,0.44895999999999997,0.32696
429,0.3172,0.35624,0.03904000000000002,-0.33672,0.13907999999999998,0.19764,-0.00488,0.73688,0.40503999999999996,0.47336,0.46359999999999996,0.33671999999999996
430,0.32696,0.35624,0.029280000000000028,-0.3416,0.14883999999999997,0.19276000000000001,-0.00488,0.75152,0.41968,0.47824,0.47824,0.34648
431,0.34159999999999996,0.366,0.024400000000000033,-0.3538,0.15859999999999996,0.1952,-0.00488,0.7564,0.42456,0.49776,0.49288,0.36112
432,0.35136,0.366,0.014639999999999986,-0.35868,0.16836,0.19032,-0.01464,0.76616,0.42456,0.51728,0.49776,0.366
433,0.34648,0.38064,0.03415999999999997,-0.36356,0.15616000000000002,0.20739999999999997,-0.01464,0.7759199999999999,0.4392,0.52216,0.50752,0.37576
434,0.34648,0.38552,0.039039999999999964,-0.366,0.15372000000000002,0.21227999999999997,-0.01952,0.7856799999999999,0.45383999999999997,0.5367999999999999,0.52216,0.38552
435,0.35136,0.39527999999999996,0.04391999999999996,-0.37332,0.15372000000000002,0.21959999999999996,-0.024399999999999998,0.7905599999999999,0.46359999999999996,0.5416799999999999,0.5367999999999999,0.40015999999999996
436,0.366,0.40503999999999996,0.039039999999999964,-0.38552,0.16348000000000001,0.22203999999999996,-0.034159999999999996,0.7856799999999999,0.46848,0.5514399999999999,0.5416799999999999,0.40015999999999996
437,0.37576,0.40992,0.034160000000000024,-0.39283999999999997,0.17079999999999998,0.22204000000000002,-0.03904,0.7905599999999999,0.47336,0.5611999999999999,0.5514399999999999,0.40503999999999996
438,0.37576,0.40503999999999996,0.029279999999999973,-0.39039999999999997,0.17324,0.21715999999999996,-0.04392,0.7905599999999999,0.47824,0.56608,0.5514399999999999,0.40503999999999996
439,0.38064,0.40992,0.029280000000000028,-0.39527999999999996,0.17567999999999998,0.21960000000000002,-0.04392,0.7954399999999999,0.47824,0.57096,0.5563199999999999,0.40992
440,0.38064,0.42456,0.043920000000000015,-0.40259999999999996,0.16835999999999998,0.23424,-0.048799999999999996,0.8051999999999999,0.49288,0.59048,0.5611999999999999,0.42944
441,0.38552,0.4392,0.053680000000000005,-0.41235999999999995,0.16591999999999998,0.24644,-0.05368,0.8051999999999999,0.50264,0.60024,0.57096,0.4392
442,0.38552,0.44408,0.05856,-0.41479999999999995,0.16348,0.25132,-0.05368,0.8051999999999999,0.50264,0.60512,0.58072,0.44895999999999997
443,0.39527999999999996,0.44408,0.04880000000000001,-0.41967999999999994,0.17323999999999998,0.24644,-0.05856,0.8051999999999999,0.50752,0.61488,0.59048,0.44895999999999997
444,0.39527999999999996,0.44408,0.04880000000000001,-0.41967999999999994,0.17323999999999998,0.24644,-0.05856,0.7954399999999999,0.50264,0.60512,0.58072,0.44895999999999997
445,0.39527999999999996,0.44408,0.04880000000000001,-0.41967999999999994,0.17323999999999998,0.24644,-0.05856,0.7905599999999999,0.50752,0.60512,0.58072,0.45383999999999997
446,0.39527999999999996,0.44895999999999997,0.053680000000000005,-0.42211999999999994,0.17079999999999998,0.25132,-0.06344,0.7905599999999999,0.50752,0.61,0.58072,0.45383999999999997
447,0.39527999999999996,0.44895999999999997,0.053680000000000005,-0.42211999999999994,0.17079999999999998,0.25132,-0.06344,0.7856799999999999,0.50752,0.61,0.5856,0.45383999999999997
448,0.40503999999999996,0.4392,0.034160000000000024,-0.42211999999999994,0.18543999999999997,0.23668,-0.05368,0.7759199999999999,0.50752,0.60024,0.5856,0.45383999999999997
449,0.40503999999999996,0.4392,0.034160000000000024,-0.42211999999999994,0.18543999999999997,0.23668,-0.05856,0.76128,0.50752,0.60512,0.5856,0.45383999999999997
450,0.40503999999999996,0.43432,0.029280000000000028,-0.41967999999999994,0.18787999999999996,0.2318,-0.05856,0.74176,0.50752,0.60512,0.58072,0.45383999999999997
451,0.40015999999999996,0.43432,0.034160000000000024,-0.41723999999999994,0.18299999999999997,0.23424,-0.06344,0.72712,0.50752,0.60512,0.57584,0.45383999999999997
452,0.39039999999999997,0.42944,0.03904000000000002,-0.40991999999999995,0.17567999999999998,0.23424,-0.06344,0.7076,0.49776,0.59536,0.56608,0.44408
453,0.37088,0.4148,0.043920000000000015,-0.39283999999999997,0.16348,0.22936,-0.05856,0.69296,0.49288,0.5856,0.5563199999999999,0.42456
454,0.34159999999999996,0.40015999999999996,0.05856,-0.37088,0.14151999999999998,0.22935999999999998,-0.05368,0.6783199999999999,0.48312,0.58072,0.5465599999999999,0.4148
455,0.32208,0.38064,0.05856,-0.35136,0.13176,0.2196,-0.05368,0.65392,0.47824,0.5611999999999999,0.53192,0.39527999999999996
456,0.32696,0.37576,0.04880000000000001,-0.35136,0.13907999999999998,0.21228,-0.048799999999999996,0.6344,0.46359999999999996,0.5563199999999999,0.52704,0.38064
457,0.32208,0.36112,0.03904000000000002,-0.3416,0.14151999999999998,0.20008,-0.04392,0.61,0.44895999999999997,0.5367999999999999,0.5124,0.366
458,0.31232,0.34648,0.034160000000000024,-0.3294,0.13907999999999998,0.19032000000000002,-0.03904,0.5856,0.4392,0.51728,0.49288,0.35136
459,0.28792,0.32696,0.039039999999999964,-0.30744,0.12444000000000002,0.18299999999999997,-0.034159999999999996,0.5611999999999999,0.42944,0.50752,0.48312,0.33671999999999996
460,0.27815999999999996,0.31232,0.034160000000000024,-0.29523999999999995,0.12199999999999997,0.17324,-0.01952,0.52704,0.40503999999999996,0.488,0.45383999999999997,0.31232
461,0.27327999999999997,0.29768,0.024400000000000033,-0.28547999999999996,0.12443999999999997,0.16104000000000002,-0.01464,0.50264,0.39039999999999997,0.46848,0.43432,0.29768
462,0.25376,0.27815999999999996,0.024399999999999977,-0.26596,0.11468,0.15127999999999997,-0.01464,0.47824,0.37088,0.44895999999999997,0.40992,0.28304
463,0.23424,0.25864,0.024399999999999977,-0.24644,0.10492000000000001,0.14151999999999998,-0.01464,0.44408,0.35624,0.42456,0.37576,0.26352
464,0.22935999999999998,0.23912,0.009760000000000019,-0.23424,0.10979999999999998,0.12444000000000001,-0.01464,0.41968,0.34159999999999996,0.40503999999999996,0.366,0.25376
465,0.21472,0.2196,0.0048799999999999955,-0.21716,0.10492,0.11223999999999999,-0.00488,0.39527999999999996,0.32696,0.39039999999999997,0.34648,0.22935999999999998
466,0.18544,0.20496,0.01952000000000001,-0.19519999999999998,0.08295999999999999,0.11224,-0.00488,0.37088,0.30744,0.37088,0.32208,0.20984
467,0.17568,0.18544,0.009759999999999991,-0.18056,0.08296,0.09759999999999999,-0.00488,0.35136,0.2928,0.35136,0.30256,0.20007999999999998
468,0.15616,0.16591999999999998,0.009759999999999991,-0.16104,0.0732,0.08783999999999999,0.00488,0.32208,0.27815999999999996,0.32208,0.27815999999999996,0.16591999999999998
469,0.13663999999999998,0.15128,0.014640000000000014,-0.14395999999999998,0.060999999999999985,0.08296,0.00488,0.29768,0.25864,0.30256,0.25376,0.15128
470,0.122,0.13176,0.009759999999999991,-0.12688,0.05612,0.07075999999999999,0.00976,0.27815999999999996,0.244,0.27815999999999996,0.244,0.13663999999999998
471,0.10736,0.11712,0.009760000000000005,-0.11224,0.048799999999999996,0.06344,0.01464,0.26352,0.23424,0.26352,0.22447999999999999,0.122
472,0.09272,0.08784,-0.0048799999999999955,-0.09028,0.048799999999999996,0.04148,0.01464,0.24888,0.2196,0.24888,0.20496,0.10248
473,0.07808,0.07808,0.0,-0.07808,0.03904,0.03904,0.01464,0.22447999999999999,0.20496,0.23424,0.19032,0.09272
474,0.05856,0.06344,0.0048799999999999955,-0.061,0.026840000000000003,0.034159999999999996,0.01464,0.20007999999999998,0.19032,0.2196,0.18056,0.07808
475,0.048799999999999996,0.048799999999999996,0.0,-0.048799999999999996,0.024399999999999998,0.024399999999999998,0.01464,0.18056,0.17568,0.21472,0.16591999999999998,0.06344
476,0.03904,0.034159999999999996,-0.004880000000000002,-0.036599999999999994,0.02196,0.014639999999999997,0.00976,0.15616,0.15616,0.19032,0.1464,0.04392
477,0.03904,0.024399999999999998,-0.01464,-0.03172,0.02684,0.004879999999999999,0.00976,0.14152,0.1464,0.18056,0.13176,0.034159999999999996
478,0.02928,0.00976,-0.019520000000000003,-0.01952,0.0244,-0.004880000000000001,0.00488,0.13176,0.13176,0.17079999999999998,0.122,0.01952
479,0.02928,0.0,-0.02928,-0.01464,0.02928,-0.01464,0.00488,0.11223999999999999,0.122,0.15128,0.11223999999999999,0.00976
480,0.01464,0.00488,-0.009760000000000001,-0.00976,0.0122,-0.0024400000000000003,0.00488,0.10736,0.11712,0.13663999999999998,0.09272,-0.00488
481,0.01464,-0.01464,-0.02928,0.0,0.02196,-0.02196,0.00488,0.09272,0.10736,0.122,0.08295999999999999,-0.01464
482,0.0,-0.01952,-0.01952,0.00976,0.00976,-0.01952,0.00488,0.07808,0.09272,0.11223999999999999,0.0732,-0.01952
483,-0.01464,-0.034159999999999996,-0.019519999999999996,0.024399999999999998,0.0024399999999999977,-0.026839999999999996,0.00488,0.0732,0.08784,0.10736,0.06831999999999999,-0.024399999999999998
484,-0.034159999999999996,-0.034159999999999996,0.0,0.034159999999999996,-0.017079999999999998,-0.017079999999999998,0.00976,0.06831999999999999,0.08295999999999999,0.10248,0.06344,-0.01952
485,-0.034159999999999996,-0.03904,-0.004880000000000002,0.036599999999999994,-0.014639999999999997,-0.02196,0.00976,0.05856,0.08295999999999999,0.09759999999999999,0.05856,-0.02928
486,-0.034159999999999996,-0.048799999999999996,-0.01464,0.041479999999999996,-0.009759999999999998,-0.03172,0.00976,0.05368,0.0732,0.08784,0.05368,-0.034159999999999996
487,-0.03904,-0.05368,-0.01464,0.04636,-0.012199999999999999,-0.034159999999999996,0.01464,0.048799999999999996,0.06344,0.07808,0.04392,-0.04392
488,-0.04392,-0.06344,-0.019519999999999996,0.05368,-0.012200000000000003,-0.041479999999999996,0.00488,0.03904,0.05856,0.07808,0.02928,-0.04392
489,-0.05368,-0.07808,-0.024399999999999998,0.06588,-0.01464,-0.051239999999999994,0.00488,0.034159999999999996,0.05368,0.05856,0.02928,-0.048799999999999996
490,-0.05368,-0.07808,-0.024399999999999998,0.06588,-0.01464,-0.051239999999999994,0.0,0.024399999999999998,0.04392,0.05368,0.024399999999999998,-0.05368
491,-0.048799999999999996,-0.07808,-0.02928,0.06344,-0.009759999999999998,-0.05368,0.0,0.01952,0.04392,0.048799999999999996,0.01464,-0.05368
492,-0.03904,-0.0732,-0.03416,0.05612,-0.0024399999999999977,-0.053680000000000005,0.0,0.01952,0.048799999999999996,0.05856,0.024399999999999998,-0.05856
493,-0.04392,-0.07808,-0.034159999999999996,0.061,-0.004880000000000002,-0.056119999999999996,0.0,0.01464,0.048799999999999996,0.05856,0.024399999999999998,-0.05856
494,-0.04392,-0.07808,-0.034159999999999996,0.061,-0.004880000000000002,-0.056119999999999996,0.0,0.00976,0.03904,0.048799999999999996,0.01952,-0.06344
495,-0.04392,-0.07808,-0.034159999999999996,0.061,-0.004880000000000002,-0.056119999999999996,0.0,0.00488,0.034159999999999996,0.04392,0.01464,-0.06831999999999999
496,-0.034159999999999996,-0.07808,-0.04392,0.056119999999999996,0.004880000000000002,-0.061,0.0,0.00488,0.034159999999999996,0.04392,0.01464,-0.06344
497,-0.034159999999999996,-0.08295999999999999,-0.048799999999999996,0.058559999999999994,0.00732,-0.06588,-0.00488,0.00488,0.024399999999999998,0.03904,0.01464,-0.06344
498,-0.02928,-0.08295999999999999,-0.05367999999999999,0.056119999999999996,0.012199999999999996,-0.06831999999999999,-0.00488,0.0,0.01952,0.034159999999999996,0.00976,-0.06831999999999999
499,-0.02928,-0.08295999999999999,-0.05367999999999999,0.056119999999999996,0.012199999999999996,-0.06831999999999999,-0.00488,0.0,0.01952,0.02928,0.00488,-0.06831999999999999
500,-0.048799999999999996,-0.09759999999999999,-0.048799999999999996,0.07319999999999999,0.0,-0.07319999999999999,-0.00976,-0.00976,0.00976,0.01952,-0.00488,-0.07808
501,-0.048799999999999996,-0.10248,-0.053680000000000005,0.07564,0.0024400000000000047,-0.07808000000000001,-0.00976,-0.01952,0.00976,0.01952,-0.00488,-0.07808
502,-0.048799999999999996,-0.10248,-0.053680000000000005,0.07564,0.0024400000000000047,-0.07808000000000001,-0.00976,-0.01952,0.00488,0.01464,-0.00976,-0.07808
503,-0.048799999999999996,-0.10248,-0.053680000000000005,0.07564,0.0024400000000000047,-0.07808000000000001,-0.00976,-0.01952,0.00488,0.01464,-0.00976,-0.07808
504,-0.05856,-0.11223999999999999,-0.05367999999999999,0.0854,-0.0024400000000000047,-0.08295999999999999,0.0,-0.00976,0.01464,0.024399999999999998,0.0,-0.06831999999999999
505,-0.05856,-0.11223999999999999,-0.05367999999999999,0.0854,-0.0024400000000000047,-0.08295999999999999,0.0,-0.00976,0.01464,0.01952,0.0,-0.06831999999999999
506,-0.05856,-0.11223999999999999,-0.05367999999999999,0.0854,-0.0024400000000000047,-0.08295999999999999,-0.00488,-0.00976,0.00976,0.01952,-0.00488,-0.06831999999999999
507,-0.05856,-0.11223999999999999,-0.05367999999999999,0.0854,-0.0024400000000000047,-0.08295999999999999,-0.00488,-0.00976,0.00976,0.01952,-0.00488,-0.06831999999999999
508,-0.05856,-0.10248,-0.04392,0.08052000000000001,-0.00732,-0.0732,-0.00488,-0.00488,0.01464,0.01952,0.00488,-0.06831999999999999
509,-0.05856,-0.10736,-0.048799999999999996,0.08296,-0.004880000000000002,-0.07808,-0.00488,-0.00488,0.01464,0.01464,0.00488,-0.06831999999999999
510,-0.048799999999999996,-0.10736,-0.05856,0.07808,0.004880000000000002,-0.08296,-0.00488,-0.01464,0.00976,0.01464,0.00488,-0.0732
511,-0.04392,-0.11223999999999999,-0.06831999999999999,0.07808,0.012199999999999996,-0.09028,-0.00488,-0.01952,0.00488,0.01464,0.0,-0.0732
512,-0.04392,-0.10736,-0.06344,0.07564,0.009759999999999998,-0.0854,0.0,-0.01952,0.01464,0.01464,0.0,-0.06344
513,-0.04392,-0.10248,-0.05856,0.0732,0.00732,-0.08052000000000001,0.0,-0.01464,0.01464,0.01464,0.0,-0.06831999999999999
514,-0.04392,-0.09759999999999999,-0.05367999999999999,0.07075999999999999,0.0048799999999999955,-0.07563999999999999,0.0,-0.00976,0.01464,0.01464,-0.00488,-0.06831999999999999
515,-0.04392,-0.09272,-0.048799999999999996,0.06831999999999999,0.0024399999999999977,-0.07075999999999999,0.0,0.0,0.01464,0.01464,-0.00488,-0.06831999999999999
516,-0.04392,-0.10248,-0.05856,0.0732,0.00732,-0.08052000000000001,-0.00488,-0.00976,0.00976,0.01464,-0.00976,-0.0732
517,-0.03904,-0.09759999999999999,-0.058559999999999994,0.06831999999999999,0.009759999999999998,-0.07808,-0.00488,-0.00976,0.00976,0.01952,-0.00976,-0.0732
518,-0.03904,-0.09759999999999999,-0.058559999999999994,0.06831999999999999,0.009759999999999998,-0.07808,-0.00488,-0.00488,0.00976,0.01952,-0.00976,-0.0732
519,-0.03904,-0.09759999999999999,-0.058559999999999994,0.06831999999999999,0.009759999999999998,-0.07808,-0.00488,-0.00488,0.00976,0.01952,-0.00976,-0.0732
520,-0.05856,-0.09759999999999999,-0.03903999999999999,0.07808,-0.009760000000000005,-0.06831999999999999,0.00488,-0.00488,0.00976,0.01464,-0.00976,-0.0732
521,-0.05856,-0.09759999999999999,-0.03903999999999999,0.07808,-0.009760000000000005,-0.06831999999999999,0.00488,-0.00488,0.00976,0.01464,-0.00976,-0.0732
522,-0.05368,-0.09759999999999999,-0.043919999999999994,0.07564,-0.004880000000000002,-0.07075999999999999,0.00488,-0.00488,0.00976,0.01464,-0.00976,-0.0732
523,-0.05368,-0.09759999999999999,-0.043919999999999994,0.07564,-0.004880000000000002,-0.07075999999999999,0.00488,-0.00488,0.00488,0.01464,-0.00976,-0.0732
524,-0.04392,-0.09759999999999999,-0.05367999999999999,0.07075999999999999,0.0048799999999999955,-0.07563999999999999,0.00488,-0.00488,0.00488,0.01464,-0.00976,-0.08295999999999999
525,-0.05368,-0.09759999999999999,-0.043919999999999994,0.07564,-0.004880000000000002,-0.07075999999999999,0.00976,0.0,0.00976,0.01952,-0.00488,-0.08295999999999999
526,-0.06344,-0.10248,-0.039040000000000005,0.08296,-0.012199999999999996,-0.07076,0.00976,0.00488,0.01464,0.01952,-0.00488,-0.08295999999999999
527,-0.048799999999999996,-0.10248,-0.053680000000000005,0.07564,0.0024400000000000047,-0.07808000000000001,0.00976,0.00488,0.01464,0.01464,-0.00488,-0.08295999999999999
528,-0.03904,-0.09272,-0.05368,0.06588,0.00732,-0.0732,-0.00488,0.0,0.00976,0.01464,-0.00976,-0.08784
529,-0.03904,-0.09272,-0.05368,0.06588,0.00732,-0.0732,-0.00488,0.0,0.00976,0.00976,-0.00976,-0.08784
530,-0.03904,-0.09272,-0.05368,0.06588,0.00732,-0.0732,-0.00488,0.0,0.00976,0.00976,-0.01464,-0.08784
531,-0.03904,-0.09272,-0.05368,0.06588,0.00732,-0.0732,-0.00488,0.0,0.00976,0.00976,-0.01464,-0.08784
532,-0.048799999999999996,-0.09272,-0.04392,0.07075999999999999,-0.0024399999999999977,-0.06831999999999999,0.00976,0.00488,0.00976,0.00976,-0.01464,-0.07808
533,-0.048799999999999996,-0.09272,-0.04392,0.07075999999999999,-0.0024399999999999977,-0.06831999999999999,0.01464,0.00488,0.00976,0.00976,-0.01464,-0.07808
534,-0.048799999999999996,-0.09272,-0.04392,0.07075999999999999,-0.0024399999999999977,-0.06831999999999999,0.01464,0.00976,0.00976,0.01464,-0.01464,-0.07808
535,-0.05368,-0.09272,-0.03904,0.0732,-0.00732,-0.06588,0.01464,0.00976,0.00976,0.01464,-0.00976,-0.07808
536,-0.06831999999999999,-0.10248,-0.03416000000000001,0.0854,-0.01707999999999999,-0.06832,0.024399999999999998,0.00976,0.01952,0.024399999999999998,0.0,-0.06831999999999999
537,-0.06831999999999999,-0.09759999999999999,-0.02928,0.08295999999999999,-0.019519999999999996,-0.06344,0.024399999999999998,0.00976,0.01952,0.024399999999999998,-0.00488,-0.0732
538,-0.0732,-0.09759999999999999,-0.02439999999999999,0.0854,-0.024400000000000005,-0.06099999999999999,0.01952,0.00976,0.01952,0.024399999999999998,-0.00488,-0.0732
539,-0.07808,-0.09759999999999999,-0.019519999999999996,0.08784,-0.02928,-0.058559999999999994,0.01952,0.00976,0.01952,0.024399999999999998,-0.00488,-0.0732
540,-0.06831999999999999,-0.09759999999999999,-0.02928,0.08295999999999999,-0.019519999999999996,-0.06344,0.00976,0.01464,0.024399999999999998,0.024399999999999998,-0.00488,-0.0732
541,-0.06831999999999999,-0.09759999999999999,-0.02928,0.08295999999999999,-0.019519999999999996,-0.06344,0.00976,0.01464,0.024399999999999998,0.024399999999999998,-0.00488,-0.0732
542,-0.06831999999999999,-0.09759999999999999,-0.02928,0.08295999999999999,-0.019519999999999996,-0.06344,0.00976,0.01464,0.01952,0.024399999999999998,-0.00488,-0.0732
543,-0.06831999999999999,-0.09759999999999999,-0.02928,0.08295999999999999,-0.019519999999999996,-0.06344,0.00976,0.01464,0.01952,0.02928,-0.00488,-0.06344
544,-0.06831999999999999,-0.09272,-0.024400000000000005,0.08052,-0.021959999999999993,-0.05856,0.00976,0.00488,0.01952,0.02928,0.0,-0.0732
545,-0.06344,-0.08784,-0.024400000000000005,0.07564,-0.019519999999999996,-0.05612,0.00976,0.0,0.01952,0.024399999999999998,0.0,-0.07808
546,-0.06344,-0.08295999999999999,-0.019519999999999996,0.07319999999999999,-0.02196,-0.051239999999999994,0.00976,0.0,0.01952,0.024399999999999998,0.0,-0.07808
547,-0.06344,-0.0732,-0.009760000000000005,0.06831999999999999,-0.026839999999999996,-0.04148,0.00976,0.0,0.01952,0.024399999999999998,0.00488,-0.07808
548,-0.05368,-0.0732,-0.019520000000000003,0.06344,-0.017079999999999998,-0.04636,0.0,0.0,0.00976,0.024399999999999998,-0.00488,-0.06831999999999999
549,-0.05368,-0.07808,-0.024399999999999998,0.06588,-0.01464,-0.051239999999999994,0.0,0.0,0.00976,0.024399999999999998,-0.00488,-0.06831999999999999
550,-0.048799999999999996,-0.07808,-0.02928,0.06344,-0.009759999999999998,-0.05368,0.00488,0.0,0.00976,0.024399999999999998,-0.00488,-0.06831999999999999
551,-0.048799999999999996,-0.0732,-0.024400000000000005,0.061,-0.012199999999999996,-0.0488,0.00488,0.0,0.00976,0.024399999999999998,-0.00488,-0.06344
552,-0.06831999999999999,-0.07808,-0.009760000000000005,0.07319999999999999,-0.029279999999999994,-0.04392,0.01464,0.0,0.01464,0.034159999999999996,0.0,-0.05368
553,-0.0732,-0.07808,-0.0048799999999999955,0.07564,-0.03416,-0.041479999999999996,0.01464,0.0,0.01464,0.034159999999999996,0.00488,-0.05368
554,-0.0732,-0.07808,-0.0048799999999999955,0.07564,-0.03416,-0.041479999999999996,0.01464,0.0,0.01464,0.034159999999999996,0.00976,-0.048799999999999996
555,-0.06831999999999999,-0.07808,-0.009760000000000005,0.07319999999999999,-0.029279999999999994,-0.04392,0.01464,0.0,0.01464,0.034159999999999996,0.01464,-0.048799999999999996
556,-0.06831999999999999,-0.0732,-0.004880000000000009,0.07075999999999999,-0.03171999999999999,-0.039040000000000005,0.01464,0.0,0.024399999999999998,0.034159999999999996,0.01464,-0.048799999999999996
557,-0.06831999999999999,-0.06831999999999999,0.0,0.06831999999999999,-0.034159999999999996,-0.034159999999999996,0.01464,0.0,0.024399999999999998,0.034159999999999996,0.01464,-0.048799999999999996
558,-0.06344,-0.06344,0.0,0.06344,-0.03172,-0.03172,0.01464,0.0,0.024399999999999998,0.034159999999999996,0.01464,-0.05368
559,-0.06344,-0.05856,0.0048799999999999955,0.061,-0.034159999999999996,-0.026840000000000003,0.01464,-0.00488,0.024399999999999998,0.034159999999999996,0.01464,-0.05368
560,-0.05368,-0.06831999999999999,-0.014639999999999993,0.061,-0.019520000000000003,-0.04147999999999999,0.00488,0.00488,0.024399999999999998,0.034159999999999996,0.01464,-0.05368
561,-0.05368,-0.06831999999999999,-0.014639999999999993,0.061,-0.019520000000000003,-0.04147999999999999,0.00488,-0.00488,0.024399999999999998,0.034159999999999996,0.01464,-0.05368
562,-0.05368,-0.06344,-0.009759999999999998,0.05856,-0.02196,-0.036599999999999994,0.00488,-0.00488,0.024399999999999998,0.034159999999999996,0.01464,-0.05368
563,-0.05368,-0.05856,-0.004880000000000002,0.05612,-0.024399999999999998,-0.03172,0.00488,-0.00976,0.024399999999999998,0.034159999999999996,0.01464,-0.05368
564,-0.06344,-0.048799999999999996,0.01464,0.056119999999999996,-0.03904,-0.017079999999999998,0.00488,-0.01952,0.01464,0.034159999999999996,0.00976,-0.05368
565,-0.06344,-0.05856,0.0048799999999999955,0.061,-0.034159999999999996,-0.026840000000000003,0.00488,-0.01952,0.01464,0.034159999999999996,0.00976,-0.05368
566,-0.06344,-0.05856,0.0048799999999999955,0.061,-0.034159999999999996,-0.026840000000000003,0.00488,-0.01464,0.01952,0.03904,0.01952,-0.05368
567,-0.06344,-0.05856,0.0048799999999999955,0.061,-0.034159999999999996,-0.026840000000000003,0.00488,-0.01464,0.01952,0.03904,0.01952,-0.05368
568,-0.05368,-0.05856,-0.004880000000000002,0.05612,-0.024399999999999998,-0.03172,-0.00488,-0.01952,0.01464,0.02928,0.01464,-0.06344
569,-0.05368,-0.05856,-0.004880000000000002,0.05612,-0.024399999999999998,-0.03172,-0.00488,-0.024399999999999998,0.01464,0.034159999999999996,0.00976,-0.05856
570,-0.05856,-0.05856,0.0,0.05856,-0.02928,-0.02928,-0.00488,-0.024399999999999998,0.01464,0.034159999999999996,0.00488,-0.05856
571,-0.05856,-0.05856,0.0,0.05856,-0.02928,-0.02928,-0.00976,-0.024399999999999998,0.01464,0.034159999999999996,0.0,-0.05856
572,-0.05856,-0.06344,-0.0048799999999999955,0.061,-0.026840000000000003,-0.034159999999999996,0.0,-0.01464,0.01464,0.03904,0.0,-0.05368
573,-0.05856,-0.06344,-0.0048799999999999955,0.061,-0.026840000000000003,-0.034159999999999996,0.0,-0.01952,0.01464,0.03904,0.00488,-0.05368
574,-0.06344,-0.05856,0.0048799999999999955,0.061,-0.034159999999999996,-0.026840000000000003,0.0,-0.024399999999999998,0.01464,0.03904,0.00976,-0.05368
575,-0.06831999999999999,-0.05856,0.009759999999999991,0.06344,-0.03903999999999999,-0.024400000000000005,0.0,-0.02928,0.01464,0.03904,0.01464,-0.05368
576,-0.06344,-0.05856,0.0048799999999999955,0.061,-0.034159999999999996,-0.026840000000000003,-0.00488,-0.01952,0.01464,0.03904,0.00488,-0.048799999999999996
577,-0.0732,-0.05856,0.01464,0.06588,-0.04392,-0.02196,-0.00488,-0.01952,0.01464,0.03904,0.00976,-0.04392
578,-0.0732,-0.05856,0.01464,0.06588,-0.04392,-0.02196,-0.00976,-0.01952,0.01464,0.03904,0.00976,-0.04392
579,-0.05856,-0.05856,0.0,0.05856,-0.02928,-0.02928,-0.01952,-0.024399999999999998,0.01464,0.03904,0.00488,-0.048799999999999996
580,-0.034159999999999996,-0.05856,-0.024400000000000005,0.04636,-0.0048799999999999955,-0.04148,-0.00976,-0.03904,0.00976,0.02928,-0.00488,-0.05368
581,-0.04392,-0.05856,-0.01464,0.05124,-0.01464,-0.0366,-0.00976,-0.03904,0.00488,0.02928,-0.00488,-0.05856
582,-0.03904,-0.05856,-0.019520000000000003,0.048799999999999996,-0.009759999999999998,-0.039040000000000005,-0.00976,-0.03904,0.0,0.02928,-0.00488,-0.05368
583,-0.034159999999999996,-0.05856,-0.024400000000000005,0.04636,-0.0048799999999999955,-0.04148,-0.00976,-0.034159999999999996,-0.00488,0.02928,-0.00488,-0.05856
584,-0.04392,-0.05856,-0.01464,0.05124,-0.01464,-0.0366,0.0,-0.024399999999999998,0.0,0.03904,0.00488,-0.05368
585,-0.048799999999999996,-0.05856,-0.009760000000000005,0.05368,-0.019519999999999996,-0.03416,0.0,-0.024399999999999998,0.00488,0.03904,0.00488,-0.05368
586,-0.05368,-0.05856,-0.004880000000000002,0.05612,-0.024399999999999998,-0.03172,0.0,-0.024399999999999998,0.00976,0.03904,0.00488,-0.05368
587,-0.06344,-0.05856,0.0048799999999999955,0.061,-0.034159999999999996,-0.026840000000000003,0.0,-0.024399999999999998,0.01464,0.03904,0.00488,-0.05368
588,-0.06344,-0.05856,0.0048799999999999955,0.061,-0.034159999999999996,-0.026840000000000003,0.0,-0.034159999999999996,0.00488,0.02928,-0.00488,-0.05368
589,-0.05856,-0.05856,0.0,0.05856,-0.02928,-0.02928,0.0,-0.03904,0.00488,0.02928,-0.00488,-0.05368
590,-0.05856,-0.05856,0.0,0.05856,-0.02928,-0.02928,0.0,-0.04392,0.00488,0.02928,-0.00488,-0.05368
591,-0.05856,-0.05856,0.0,0.05856,-0.02928,-0.02928,0.0,-0.04392,0.0,0.02928,-0.00488,-0.05368
592,-0.06344,-0.048799999999999996,0.01464,0.056119999999999996,-0.03904,-0.017079999999999998,-0.00488,-0.04392,0.0,0.02928,0.00488,-0.06344
593,-0.06344,-0.05368,0.009759999999999998,0.05856,-0.036599999999999994,-0.02196,-0.00488,-0.04392,0.0,0.02928,0.00488,-0.06344
594,-0.08295999999999999,-0.06344,0.019519999999999996,0.07319999999999999,-0.051239999999999994,-0.02196,-0.00488,-0.04392,0.0,0.02928,0.00488,-0.06344
595,-0.0732,-0.06344,0.009760000000000005,0.06831999999999999,-0.04148,-0.026839999999999996,-0.00488,-0.048799999999999996,0.0,0.02928,0.00488,-0.06344
596,-0.0732,-0.06344,0.009760000000000005,0.06831999999999999,-0.04148,-0.026839999999999996,-0.00488,-0.048799999999999996,0.0,0.01952,-0.00488,-0.06344
597,-0.0732,-0.05856,0.01464,0.06588,-0.04392,-0.02196,-0.00488,-0.048799999999999996,0.00488,0.01952,-0.00488,-0.06344
598,-0.0732,-0.05856,0.01464,0.06588,-0.04392,-0.02196,-0.00488,-0.048799999999999996,0.00488,0.01952,-0.00488,-0.06344
599,-0.06831999999999999,-0.06344,0.0048799999999999955,0.06588,-0.036599999999999994,-0.02928,-0.00976,-0.048799999999999996,0.0,0.01464,-0.00488,-0.06344
600,-0.06344,-0.06344,0.0,0.06344,-0.03172,-0.03172,-0.00976,-0.05856,-0.00488,0.01464,-0.01952,-0.0732
601,-0.06344,-0.06344,0.0,0.06344,-0.03172,-0.03172,-0.00976,-0.05856,-0.00488,0.01464,-0.01952,-0.0732
602,-0.06344,-0.06344,0.0,0.06344,-0.03172,-0.03172,-0.00488,-0.05368,-0.00488,0.01464,-0.01464,-0.0732
603,-0.06344,-0.05856,0.0048799999999999955,0.061,-0.034159999999999996,-0.026840000000000003,-0.00488,-0.05368,-0.00488,0.01464,-0.01464,-0.06831999999999999
604,-0.0732,-0.06831999999999999,0.004880000000000009,0.07075999999999999,-0.039040000000000005,-0.03171999999999999,-0.00488,-0.06344,-0.01464,0.01464,-0.00488,-0.06831999999999999
605,-0.0732,-0.06831999999999999,0.004880000000000009,0.07075999999999999,-0.039040000000000005,-0.03171999999999999,-0.00488,-0.06344,-0.01464,0.01464,-0.00976,-0.06831999999999999
606,-0.0732,-0.06831999999999999,0.004880000000000009,0.07075999999999999,-0.039040000000000005,-0.03171999999999999,-0.00488,-0.0732,-0.01952,0.00976,-0.01464,-0.0732
607,-0.0732,-0.06831999999999999,0.004880000000000009,0.07075999999999999,-0.039040000000000005,-0.03171999999999999,-0.00488,-0.0732,-0.024399999999999998,0.00976,-0.01464,-0.0732
608,-0.0732,-0.07808,-0.0048799999999999955,0.07564,-0.03416,-0.041479999999999996,-0.01464,-0.06831999999999999,-0.024399999999999998,0.00976,-0.01464,-0.0732
609,-0.0732,-0.07808,-0.0048799999999999955,0.07564,-0.03416,-0.041479999999999996,-0.01464,-0.06831999999999999,-0.01952,0.00976,-0.01464,-0.0732
610,-0.07808,-0.07808,0.0,0.07808,-0.03904,-0.03904,-0.00976,-0.0732,-0.01952,0.00976,-0.01464,-0.0732
611,-0.07808,-0.07808,0.0,0.07808,-0.03904,-0.03904,-0.00976,-0.0732,-0.01952,0.00488,-0.01464,-0.0732
612,-0.07808,-0.06831999999999999,0.009760000000000005,0.07319999999999999,-0.04392,-0.029279999999999994,-0.01464,-0.06344,-0.01952,0.00488,-0.01464,-0.0732
613,-0.07808,-0.06344,0.01464,0.07075999999999999,-0.04636,-0.024399999999999998,-0.01464,-0.06344,-0.024399999999999998,0.00488,-0.01952,-0.0732
614,-0.08295999999999999,-0.06344,0.019519999999999996,0.07319999999999999,-0.051239999999999994,-0.02196,-0.01464,-0.06344,-0.024399999999999998,0.00488,-0.01952,-0.0732
615,-0.08295999999999999,-0.06831999999999999,0.01464,0.07563999999999999,-0.048799999999999996,-0.026839999999999996,-0.01464,-0.06344,-0.024399999999999998,0.00488,-0.01952,-0.0732
616,-0.08784,-0.07808,0.009760000000000005,0.08296,-0.0488,-0.034159999999999996,-0.01464,-0.06831999999999999,-0.024399999999999998,0.00488,-0.01464,-0.0732
617,-0.08784,-0.07808,0.009760000000000005,0.08296,-0.0488,-0.034159999999999996,-0.01464,-0.0732,-0.024399999999999998,0.00488,-0.01464,-0.0732
618,-0.08784,-0.07808,0.009760000000000005,0.08296,-0.0488,-0.034159999999999996,-0.01464,-0.0732,-0.024399999999999998,0.00488,-0.01464,-0.0732
619,-0.08784,-0.07808,0.009760000000000005,0.08296,-0.0488,-0.034159999999999996,-0.01464,-0.0732,-0.024399999999999998,0.00488,-0.01464,-0.0732
620,-0.07808,-0.07808,0.0,0.07808,-0.03904,-0.03904,-0.01464,-0.08295999999999999,-0.034159999999999996,-0.00488,-0.024399999999999998,-0.07808
621,-0.07808,-0.07808,0.0,0.07808,-0.03904,-0.03904,-0.024399999999999998,-0.08784,-0.03904,-0.00976,-0.024399999999999998,-0.07808
622,-0.07808,-0.07808,0.0,0.07808,-0.03904,-0.03904,-0.024399999999999998,-0.08784,-0.03904,-0.00976,-0.024399999999999998,-0.08295999999999999
623,-0.07808,-0.07808,0.0,0.07808,-0.03904,-0.03904,-0.024399999999999998,-0.08784,-0.03904,-0.00976,-0.024399999999999998,-0.08295999999999999
624,-0.07808,-0.07808,0.0,0.07808,-0.03904,-0.03904,-0.02928,-0.08784,-0.04392,-0.00976,-0.024399999999999998,-0.08295999999999999
625,-0.0732,-0.07808,-0.0048799999999999955,0.07564,-0.03416,-0.041479999999999996,-0.02928,-0.08784,-0.04392,-0.00976,-0.024399999999999998,-0.08295999999999999
626,-0.0732,-0.07808,-0.0048799999999999955,0.07564,-0.03416,-0.041479999999999996,-0.024399999999999998,-0.08784,-0.03904,-0.00976,-0.01952,-0.08295999999999999
627,-0.07808,-0.07808,0.0,0.07808,-0.03904,-0.03904,-0.024399999999999998,-0.08295999999999999,-0.03904,-0.00976,-0.01952,-0.08295999999999999
628,-0.07808,-0.08784,-0.009760000000000005,0.08296,-0.034159999999999996,-0.0488,-0.024399999999999998,-0.08295999999999999,-0.03904,-0.01464,-0.01952,-0.07808
629,-0.07808,-0.08784,-0.009760000000000005,0.08296,-0.034159999999999996,-0.0488,-0.024399999999999998,-0.08295999999999999,-0.04392,-0.01464,-0.024399999999999998,-0.08295999999999999
630,-0.08784,-0.08784,0.0,0.08784,-0.04392,-0.04392,-0.024399999999999998,-0.08295999999999999,-0.04392,-0.01464,-0.024399999999999998,-0.08295999999999999
631,-0.08784,-0.08784,0.0,0.08784,-0.04392,-0.04392,-0.024399999999999998,-0.08295999999999999,-0.04392,-0.01464,-0.024399999999999998,-0.08295999999999999
632,-0.08295999999999999,-0.08784,-0.004880000000000009,0.0854,-0.03903999999999999,-0.046360000000000005,-0.01952,-0.08784,-0.04392,-0.01464,-0.024399999999999998,-0.08295999999999999
633,-0.08784,-0.08784,0.0,0.08784,-0.04392,-0.04392,-0.01952,-0.08784,-0.04392,-0.01464,-0.024399999999999998,-0.08295999999999999
634,-0.09272,-0.09759999999999999,-0.0048799999999999955,0.09516,-0.04392,-0.051239999999999994,-0.01464,-0.08784,-0.04392,-0.01464,-0.024399999999999998,-0.08295999999999999
635,-0.11712,-0.09759999999999999,0.01952000000000001,0.10736,-0.06832,-0.03903999999999999,-0.01464,-0.08784,-0.04392,-0.01464,-0.024399999999999998,-0.07808
636,-0.11223999999999999,-0.09759999999999999,0.01464,0.10491999999999999,-0.06344,-0.041479999999999996,-0.024399999999999998,-0.08784,-0.05368,-0.01464,-0.034159999999999996,-0.07808
637,-0.10736,-0.09272,0.01464,0.10003999999999999,-0.061,-0.03904,-0.024399999999999998,-0.09272,-0.05368,-0.01464,-0.034159999999999996,-0.08295999999999999
638,-0.10248,-0.09272,0.009760000000000005,0.09759999999999999,-0.05612,-0.041479999999999996,-0.024399999999999998,-0.09272,-0.05368,-0.01464,-0.034159999999999996,-0.08295999999999999
639,-0.09272,-0.09272,0.0,0.09272,-0.04636,-0.04636,-0.024399999999999998,-0.08784,-0.05368,-0.01464,-0.034159999999999996,-0.08295999999999999
640,-0.09759999999999999,-0.09759999999999999,0.0,0.09759999999999999,-0.048799999999999996,-0.048799999999999996,-0.024399999999999998,-0.08784,-0.04392,-0.01464,-0.034159999999999996,-0.08784
641,-0.09759999999999999,-0.09759999999999999,0.0,0.09759999999999999,-0.048799999999999996,-0.048799999999999996,-0.024399999999999998,-0.08784,-0.04392,-0.01464,-0.034159999999999996,-0.08784
642,-0.09759999999999999,-0.09272,0.0048799999999999955,0.09516,-0.051239999999999994,-0.04392,-0.024399999999999998,-0.08784,-0.048799999999999996,-0.01464,-0.034159999999999996,-0.08784
643,-0.09759999999999999,-0.09272,0.0048799999999999955,0.09516,-0.051239999999999994,-0.04392,-0.024399999999999998,-0.09272,-0.048799999999999996,-0.01464,-0.034159999999999996,-0.08784
644,-0.08784,-0.08784,0.0,0.08784,-0.04392,-0.04392,-0.024399999999999998,-0.09272,-0.048799999999999996,-0.01464,-0.034159999999999996,-0.08784
645,-0.08784,-0.08784,0.0,0.08784,-0.04392,-0.04392,-0.024399999999999998,-0.09272,-0.048799999999999996,-0.01952,-0.034159999999999996,-0.08784
646,-0.08784,-0.08784,0.0,0.08784,-0.04392,-0.04392,-0.024399999999999998,-0.09272,-0.048799999999999996,-0.01952,-0.03904,-0.09272
647,-0.08784,-0.08784,0.0,0.08784,-0.04392,-0.04392,-0.02928,-0.09759999999999999,-0.048799999999999996,-0.01952,-0.04392,-0.09272
648,-0.08784,-0.08784,0.0,0.08784,-0.04392,-0.04392,-0.02928,-0.09759999999999999,-0.05856,-0.01952,-0.04392,-0.09759999999999999
649,-0.09759999999999999,-0.08784,0.009759999999999991,0.09272,-0.05367999999999999,-0.039040000000000005,-0.024399999999999998,-0.09272,-0.05856,-0.01952,-0.03904,-0.09272
650,-0.10248,-0.08784,0.01464,0.09516,-0.05856,-0.0366,-0.024399999999999998,-0.09272,-0.05856,-0.01464,-0.03904,-0.09272
651,-0.10736,-0.08784,0.019519999999999996,0.09759999999999999,-0.06344,-0.03416,-0.024399999999999998,-0.09272,-0.05856,-0.00976,-0.03904,-0.09272
652,-0.09759999999999999,-0.08784,0.009759999999999991,0.09272,-0.05367999999999999,-0.039040000000000005,-0.024399999999999998,-0.09272,-0.05368,-0.01952,-0.04392,-0.08295999999999999
653,-0.09759999999999999,-0.08784,0.009759999999999991,0.09272,-0.05367999999999999,-0.039040000000000005,-0.024399999999999998,-0.09272,-0.05368,-0.01952,-0.04392,-0.08295999999999999
654,-0.09759999999999999,-0.08784,0.009759999999999991,0.09272,-0.05367999999999999,-0.039040000000000005,-0.024399999999999998,-0.09759999999999999,-0.05368,-0.01464,-0.04392,-0.08295999999999999
655,-0.09272,-0.08784,0.0048799999999999955,0.09028,-0.048799999999999996,-0.04148,-0.02928,-0.09759999999999999,-0.05368,-0.01464,-0.04392,-0.08295999999999999
656,-0.11223999999999999,-0.08784,0.02439999999999999,0.10003999999999999,-0.06831999999999999,-0.031720000000000005,-0.01952,-0.08784,-0.04392,-0.01952,-0.034159999999999996,-0.07808
657,-0.12688,-0.09759999999999999,0.02928,0.11223999999999999,-0.07808,-0.034159999999999996,-0.00976,-0.09272,-0.04392,-0.00976,-0.034159999999999996,-0.07808
658,-0.13176,-0.09759999999999999,0.034159999999999996,0.11467999999999999,-0.08295999999999999,-0.03172,-0.01952,-0.09272,-0.048799999999999996,-0.01952,-0.034159999999999996,-0.08295999999999999
659,-0.11712,-0.09759999999999999,0.01952000000000001,0.10736,-0.06832,-0.03903999999999999,-0.01952,-0.09759999999999999,-0.048799999999999996,-0.01952,-0.03904,-0.07808
660,-0.11223999999999999,-0.09759999999999999,0.01464,0.10491999999999999,-0.06344,-0.041479999999999996,-0.01952,-0.09759999999999999,-0.05856,-0.02928,-0.048799999999999996,-0.08784
661,-0.10736,-0.09759999999999999,0.009760000000000005,0.10247999999999999,-0.05856,-0.043919999999999994,-0.01952,-0.09759999999999999,-0.05856,-0.02928,-0.048799999999999996,-0.08784
662,-0.10248,-0.09759999999999999,0.004880000000000009,0.10003999999999999,-0.053680000000000005,-0.04635999999999999,-0.01952,-0.09759999999999999,-0.05856,-0.02928,-0.048799999999999996,-0.08784
663,-0.09759999999999999,-0.09759999999999999,0.0,0.09759999999999999,-0.048799999999999996,-0.048799999999999996,-0.01952,-0.09759999999999999,-0.05856,-0.02928,-0.048799999999999996,-0.08784
664,-0.09272,-0.08784,0.0048799999999999955,0.09028,-0.048799999999999996,-0.04148,-0.01952,-0.09759999999999999,-0.048799999999999996,-0.01952,-0.03904,-0.07808
665,-0.08784,-0.08784,0.0,0.08784,-0.04392,-0.04392,-0.01952,-0.09759999999999999,-0.048799999999999996,-0.01952,-0.03904,-0.07808
666,-0.08295999999999999,-0.08784,-0.004880000000000009,0.0854,-0.03903999999999999,-0.046360000000000005,-0.01952,-0.09759999999999999,-0.048799999999999996,-0.01952,-0.03904,-0.07808
667,-0.07808,-0.08784,-0.009760000000000005,0.08296,-0.034159999999999996,-0.0488,-0.01952,-0.09759999999999999,-0.048799999999999996,-0.01952,-0.03904,-0.07808
668,-0.09272,-0.09759999999999999,-0.0048799999999999955,0.09516,-0.04392,-0.051239999999999994,-0.02928,-0.09759999999999999,-0.05856,-0.02928,-0.048799999999999996,-0.07808
669,-0.09759999999999999,-0.09759999999999999,0.0,0.09759999999999999,-0.048799999999999996,-0.048799999999999996,-0.02928,-0.09759999999999999,-0.05856,-0.02928,-0.048799999999999996,-0.07808
670,-0.10248,-0.09759999999999999,0.004880000000000009,0.10003999999999999,-0.053680000000000005,-0.04635999999999999,-0.02928,-0.09759999999999999,-0.05856,-0.02928,-0.048799999999999996,-0.07808
671,-0.10736,-0.09759999999999999,0.009760000000000005,0.10247999999999999,-0.05856,-0.043919999999999994,-0.02928,-0.09759999999999999,-0.05856,-0.02928,-0.048799999999999996,-0.07808
672,-0.11223999999999999,-0.09759999999999999,0.01464,0.10491999999999999,-0.06344,-0.041479999999999996,-0.01952,-0.09759999999999999,-0.05856,-0.01952,-0.03904,-0.07808
673,-0.11712,-0.09759999999999999,0.01952000000000001,0.10736,-0.06832,-0.03903999999999999,-0.01952,-0.09759999999999999,-0.05856,-0.01952,-0.03904,-0.07808
674,-0.122,-0.09759999999999999,0.024400000000000005,0.1098,-0.0732,-0.036599999999999994,-0.01952,-0.09759999999999999,-0.05856,-0.01952,-0.03904,-0.07808
675,-0.12688,-0.09759999999999999,0.02928,0.11223999999999999,-0.07808,-0.034159999999999996,-0.01952,-0.09759999999999999,-0.05856,-0.01952,-0.03904,-0.07808
676,-0.122,-0.09759999999999999,0.024400000000000005,0.1098,-0.0732,-0.036599999999999994,-0.01952,-0.09759999999999999,-0.06831999999999999,-0.02928,-0.048799999999999996,-0.07808
677,-0.11712,-0.09759999999999999,0.01952000000000001,0.10736,-0.06832,-0.03903999999999999,-0.01952,-0.09759999999999999,-0.06831999999999999,-0.02928,-0.048799999999999996,-0.07808
678,-0.11223999999999999,-0.09759999999999999,0.01464,0.10491999999999999,-0.06344,-0.041479999999999996,-0.01952,-0.09759999999999999,-0.06831999999999999,-0.02928,-0.048799999999999996,-0.07808
679,-0.10736,-0.09759999999999999,0.009760000000000005,0.10247999999999999,-0.05856,-0.043919999999999994,-0.01952,-0.09759999999999999,-0.06831999999999999,-0.02928,-0.048799999999999996,-0.07808
680,-0.09759999999999999,-0.09759999999999999,0.0,0.09759999999999999,-0.048799999999999996,-0.048799999999999996,-0.01952,-0.10736,-0.06831999999999999,-0.02928,-0.048799999999999996,-0.08784
681,-0.09759999999999999,-0.09759999999999999,0.0,0.09759999999999999,-0.048799999999999996,-0.048799999999999996,-0.01952,-0.10736,-0.06831999999999999,-0.02928,-0.048799999999999996,-0.08784
682,-0.09759999999999999,-0.09759999999999999,0.0,0.09759999999999999,-0.048799999999999996,-0.048799999999999996,-0.01952,-0.10736,-0.06831999999999999,-0.02928,-0.048799999999999996,-0.08784
683,-0.09759999999999999,-0.09759999999999999,0.0,0.09759999999999999,-0.048799999999999996,-0.048799999999999996,-0.01952,-0.10736,-0.06831999999999999,-0.02928,-0.048799999999999996,-0.08784
684,-0.10248,-0.09759999999999999,0.004880000000000009,0.10003999999999999,-0.053680000000000005,-0.04635999999999999,-0.01952,-0.09759999999999999,-0.05856,-0.02928,-0.048799999999999996,-0.07808
685,-0.10736,-0.09759999999999999,0.009760000000000005,0.10247999999999999,-0.05856,-0.043919999999999994,-0.01952,-0.09759999999999999,-0.05856,-0.02928,-0.048799999999999996,-0.07808
686,-0.11223999999999999,-0.09759999999999999,0.01464,0.10491999999999999,-0.06344,-0.041479999999999996,-0.01952,-0.09759999999999999,-0.05856,-0.02928,-0.048799999999999996,-0.07808
687,-0.11712,-0.09759999999999999,0.01952000000000001,0.10736,-0.06832,-0.03903999999999999,-0.01952,-0.09759999999999999,-0.05856,-0.02928,-0.048799999999999996,-0.07808
688,-0.11223999999999999,-0.10248,0.009759999999999991,0.10736,-0.06099999999999999,-0.046360000000000005,-0.01952,-0.10736,-0.06831999999999999,-0.03904,-0.05368,-0.07808
689,-0.10736,-0.10736,0.0,0.10736,-0.05368,-0.05368,-0.01952,-0.10736,-0.06831999999999999,-0.03904,-0.05856,-0.07808
690,-0.10248,-0.11223999999999999,-0.009759999999999991,0.10736,-0.046360000000000005,-0.06099999999999999,-0.01952,-0.10736,-0.06831999999999999,-0.03904,-0.06344,-0.07808
691,-0.09759999999999999,-0.11712,-0.01952000000000001,0.10736,-0.03903999999999999,-0.06832,-0.01952,-0.10736,-0.06831999999999999,-0.03904,-0.06831999999999999,-0.07808
692,-0.09759999999999999,-0.10736,-0.009760000000000005,0.10247999999999999,-0.043919999999999994,-0.05856,-0.01952,-0.10736,-0.06831999999999999,-0.02928,-0.05856,-0.07808
693,-0.09759999999999999,-0.10736,-0.009760000000000005,0.10247999999999999,-0.043919999999999994,-0.05856,-0.01952,-0.10736,-0.06831999999999999,-0.02928,-0.05856,-0.07808
694,-0.09759999999999999,-0.10736,-0.009760000000000005,0.10247999999999999,-0.043919999999999994,-0.05856,-0.01952,-0.10736,-0.06831999999999999,-0.02928,-0.05856,-0.07808
695,-0.09759999999999999,-0.10736,-0.009760000000000005,0.10247999999999999,-0.043919999999999994,-0.05856,-0.01952,-0.10736,-0.06831999999999999,-0.02928,-0.05856,-0.07808
696,-0.10248,-0.10736,-0.0048799999999999955,0.10492,-0.0488,-0.056119999999999996,-0.01952,-0.10736,-0.06831999999999999,-0.02928,-0.05856,-0.06831999999999999
697,-0.10736,-0.10736,0.0,0.10736,-0.05368,-0.05368,-0.01952,-0.10736,-0.06831999999999999,-0.02928,-0.05856,-0.06831999999999999
698,-0.11223999999999999,-0.10736,0.0048799999999999955,0.1098,-0.058559999999999994,-0.05124,-0.01952,-0.10736,-0.06831999999999999,-0.02928,-0.05856,-0.06831999999999999
699,-0.11712,-0.10736,0.009760000000000005,0.11224,-0.06344,-0.048799999999999996,-0.01952,-0.10736,-0.06831999999999999,-0.02928,-0.05856,-0.06831999999999999
700,-0.12688,-0.11712,0.009759999999999991,0.122,-0.06831999999999999,-0.053680000000000005,-0.00976,-0.10736,-0.06831999999999999,-0.01952,-0.05856,-0.06831999999999999
701,-0.12688,-0.11712,0.009759999999999991,0.122,-0.06831999999999999,-0.053680000000000005,-0.00976,-0.10736,-0.06831999999999999,-0.01952,-0.05856,-0.06831999999999999
702,-0.12688,-0.11712,0.009759999999999991,0.122,-0.06831999999999999,-0.053680000000000005,-0.00976,-0.10736,-0.06831999999999999,-0.01952,-0.05856,-0.06831999999999999
703,-0.12688,-0.11712,0.009759999999999991,0.122,-0.06831999999999999,-0.053680000000000005,-0.00976,-0.10736,-0.06831999999999999,-0.01952,-0.05856,-0.06831999999999999
704,-0.11712,-0.11712,0.0,0.11712,-0.05856,-0.05856,-0.01464,-0.11712,-0.06831999999999999,-0.024399999999999998,-0.06344,-0.07808
705,-0.11712,-0.11712,0.0,0.11712,-0.05856,-0.05856,-0.01952,-0.11712,-0.06831999999999999,-0.02928,-0.06831999999999999,-0.07808
706,-0.11712,-0.11712,0.0,0.11712,-0.05856,-0.05856,-0.024399999999999998,-0.11712,-0.06831999999999999,-0.034159999999999996,-0.0732,-0.07808
707,-0.11712,-0.11712,0.0,0.11712,-0.05856,-0.05856,-0.02928,-0.11712,-0.06831999999999999,-0.03904,-0.07808,-0.07808
708,-0.12688,-0.11712,0.009759999999999991,0.122,-0.06831999999999999,-0.053680000000000005,-0.01952,-0.10736,-0.06831999999999999,-0.03904,-0.06831999999999999,-0.07808
709,-0.12688,-0.11712,0.009759999999999991,0.122,-0.06831999999999999,-0.053680000000000005,-0.01952,-0.10736,-0.06831999999999999,-0.03904,-0.06831999999999999,-0.07808
710,-0.12688,-0.11712,0.009759999999999991,0.122,-0.06831999999999999,-0.053680000000000005,-0.01952,-0.10736,-0.06831999999999999,-0.03904,-0.06831999999999999,-0.07808
711,-0.12688,-0.11712,0.009759999999999991,0.122,-0.06831999999999999,-0.053680000000000005,-0.01952,-0.10736,-0.06831999999999999,-0.03904,-0.06831999999999999,-0.07808
712,-0.11712,-0.10736,0.009760000000000005,0.11224,-0.06344,-0.048799999999999996,-0.01952,-0.10736,-0.06831999999999999,-0.02928,-0.05856,-0.07808
713,-0.11712,-0.10736,0.009760000000000005,0.11224,-0.06344,-0.048799999999999996,-0.01952,-0.10736,-0.06831999999999999,-0.02928,-0.05856,-0.07808
714,-0.11712,-0.10736,0.009760000000000005,0.11224,-0.06344,-0.048799999999999996,-0.01952,-0.10736,-0.06831999999999999,-0.02928,-0.05856,-0.07808
715,-0.11712,-0.10736,0.009760000000000005,0.11224,-0.06344,-0.048799999999999996,-0.01952,-0.10736,-0.06831999999999999,-0.02928,-0.05856,-0.07808
716,-0.12688,-0.11712,0.009759999999999991,0.122,-0.06831999999999999,-0.053680000000000005,-0.02928,-0.10736,-0.06831999999999999,-0.03904,-0.06831999999999999,-0.07808
717,-0.12688,-0.11712,0.009759999999999991,0.122,-0.06831999999999999,-0.053680000000000005,-0.02928,-0.10736,-0.06831999999999999,-0.03904,-0.06831999999999999,-0.07808
718,-0.12688,-0.11712,0.009759999999999991,0.122,-0.06831999999999999,-0.053680000000000005,-0.02928,-0.10736,-0.06831999999999999,-0.03904,-0.06831999999999999,-0.07808
719,-0.12688,-0.11712,0.009759999999999991,0.122,-0.06831999999999999,-0.053680000000000005,-0.02928,-0.10736,-0.06831999999999999,-0.03904,-0.06831999999999999,-0.07808
720,-0.12688,-0.11712,0.009759999999999991,0.122,-0.06831999999999999,-0.053680000000000005,-0.01952,-0.11712,-0.06831999999999999,-0.03904,-0.06831999999999999,-0.07808
721,-0.12688,-0.11712,0.009759999999999991,0.122,-0.06831999999999999,-0.053680000000000005,-0.01952,-0.11712,-0.06831999999999999,-0.03904,-0.06831999999999999,-0.07808
722,-0.12688,-0.11712,0.009759999999999991,0.122,-0.06831999999999999,-0.053680000000000005,-0.01952,-0.11712,-0.06831999999999999,-0.03904,-0.06831999999999999,-0.07808
723,-0.12688,-0.11712,0.009759999999999991,0.122,-0.06831999999999999,-0.053680000000000005,-0.01952,-0.11712,-0.06831999999999999,-0.03904,-0.06831999999999999,-0.07808
724,-0.122,-0.10736,0.01464,0.11468,-0.06831999999999999,-0.04636,-0.01952,-0.11712,-0.07808,-0.03904,-0.07808,-0.07808
725,-0.11712,-0.10736,0.009760000000000005,0.11224,-0.06344,-0.048799999999999996,-0.01952,-0.11712,-0.07808,-0.03904,-0.07808,-0.07808
726,-0.11223999999999999,-0.10736,0.0048799999999999955,0.1098,-0.058559999999999994,-0.05124,-0.01952,-0.11712,-0.07808,-0.03904,-0.07808,-0.07808
727,-0.10736,-0.10736,0.0,0.10736,-0.05368,-0.05368,-0.01952,-0.11712,-0.07808,-0.03904,-0.07808,-0.07808
728,-0.11223999999999999,-0.10736,0.0048799999999999955,0.1098,-0.058559999999999994,-0.05124,-0.01952,-0.10736,-0.06831999999999999,-0.02928,-0.06831999999999999,-0.06831999999999999
729,-0.11712,-0.10736,0.009760000000000005,0.11224,-0.06344,-0.048799999999999996,-0.01952,-0.10736,-0.06831999999999999,-0.02928,-0.06831999999999999,-0.06831999999999999
730,-0.122,-0.10736,0.01464,0.11468,-0.06831999999999999,-0.04636,-0.01952,-0.10736,-0.06831999999999999,-0.02928,-0.06831999999999999,-0.06831999999999999
731,-0.12688,-0.10736,0.019519999999999996,0.11712,-0.07319999999999999,-0.04392,-0.01952,-0.10736,-0.06831999999999999,-0.02928,-0.06831999999999999,-0.06831999999999999
732,-0.11712,-0.10736,0.009760000000000005,0.11224,-0.06344,-0.048799999999999996,-0.02928,-0.10736,-0.06831999999999999,-0.02928,-0.06831999999999999,-0.07808
733,-0.11712,-0.10736,0.009760000000000005,0.11224,-0.06344,-0.048799999999999996,-0.02928,-0.10736,-0.06831999999999999,-0.02928,-0.06831999999999999,-0.07808
734,-0.11712,-0.10736,0.009760000000000005,0.11224,-0.06344,-0.048799999999999996,-0.02928,-0.10736,-0.06831999999999999,-0.02928,-0.06831999999999999,-0.07808
735,-0.11712,-0.10736,0.009760000000000005,0.11224,-0.06344,-0.048799999999999996,-0.02928,-0.10736,-0.06831999999999999,-0.02928,-0.06831999999999999,-0.07808
736,-0.11712,-0.09759999999999999,0.01952000000000001,0.10736,-0.06832,-0.03903999999999999,-0.01952,-0.10736,-0.06831999999999999,-0.02928,-0.06831999999999999,-0.06831999999999999
737,-0.11712,-0.09759999999999999,0.01952000000000001,0.10736,-0.06832,-0.03903999999999999,-0.01952,-0.10736,-0.06831999999999999,-0.02928,-0.06831999999999999,-0.06831999999999999
738,-0.11712,-0.09759999999999999,0.01952000000000001,0.10736,-0.06832,-0.03903999999999999,-0.01952,-0.10736,-0.06831999999999999,-0.02928,-0.06831999999999999,-0.06831999999999999
739,-0.11712,-0.09759999999999999,0.01952000000000001,0.10736,-0.06832,-0.03903999999999999,-0.01952,-0.10736,-0.06831999999999999,-0.02928,-0.06831999999999999,-0.06831999999999999
740,-0.10248,-0.09759999999999999,0.004880000000000009,0.10003999999999999,-0.053680000000000005,-0.04635999999999999,-0.02928,-0.11712,-0.06831999999999999,-0.02928,-0.07808,-0.0732
741,-0.09759999999999999,-0.09759999999999999,0.0,0.09759999999999999,-0.048799999999999996,-0.048799999999999996,-0.02928,-0.11712,-0.06831999999999999,-0.02928,-0.07808,-0.07808
742,-0.09272,-0.09759999999999999,-0.0048799999999999955,0.09516,-0.04392,-0.051239999999999994,-0.02928,-0.11712,-0.06831999999999999,-0.02928,-0.07808,-0.08295999999999999
743,-0.08784,-0.09759999999999999,-0.009759999999999991,0.09272,-0.039040000000000005,-0.05367999999999999,-0.02928,-0.11712,-0.06831999999999999,-0.02928,-0.07808,-0.08784
744,-0.10248,-0.10736,-0.0048799999999999955,0.10492,-0.0488,-0.056119999999999996,-0.01952,-0.10736,-0.06831999999999999,-0.02928,-0.07808,-0.07808
745,-0.10736,-0.10736,0.0,0.10736,-0.05368,-0.05368,-0.01952,-0.10736,-0.06831999999999999,-0.02928,-0.07808,-0.07808
746,-0.11223999999999999,-0.10736,0.0048799999999999955,0.1098,-0.058559999999999994,-0.05124,-0.01952,-0.10736,-0.06831999999999999,-0.02928,-0.07808,-0.07808
747,-0.11712,-0.10736,0.009760000000000005,0.11224,-0.06344,-0.048799999999999996,-0.01952,-0.10736,-0.06831999999999999,-0.02928,-0.07808,-0.07808
748,-0.12688,-0.10248,0.02439999999999999,0.11468,-0.07563999999999999,-0.039040000000000005,-0.01952,-0.10736,-0.06831999999999999,-0.02928,-0.06831999999999999,-0.07808
749,-0.12688,-0.09759999999999999,0.02928,0.11223999999999999,-0.07808,-0.034159999999999996,-0.01952,-0.10736,-0.06831999999999999,-0.02928,-0.06831999999999999,-0.07808
